599.421875,	185.19017
597.591797,	214.975998
595.761719,	208.453674
593.929688,	191.578674
592.097656,	185.06456
590.267578,	194.079742
588.435547,	191.448685
586.601562,	192.698639
584.769531,	181.018143
582.935547,	177.099091
581.101562,	169.304581
579.267578,	169.266235
577.433594,	173.103348
575.597656,	173.064133
573.763672,	179.481064
571.927734,	162.658203
570.089844,	156.168106
568.253906,	160.003754
566.416016,	176.738266
564.580078,	159.931198
562.742188,	168.921249
560.902344,	175.328842
559.064453,	190.755753
557.224609,	176.537888
555.384766,	168.767975
553.544922,	148.12146
551.705078,	155.814148
549.863281,	172.515335
548.023438,	185.347504
546.181641,	189.165924
544.337891,	208.421204
542.496094,	222.522675
540.652344,	250.763351
538.810547,	271.27713
536.966797,	298.208435
535.121094,	285.289734
533.277344,	318.629547
531.431641,	364.799225
529.585938,	454.611053
527.740234,	626.552856
525.894531,	1413.273926
524.046875,	6311.443359
522.201172,	6326.685547
520.353516,	1672.707275
518.503906,	775.887573
516.65625,	566.717651
514.806641,	558.897278
512.958984,	534.419861
511.109375,	504.828369
509.257812,	545.7052
507.408203,	517.405273
505.556641,	553.138855
503.705078,	545.33197
501.853516,	602.799927
500.001953,	716.54126
498.148438,	770.106079
496.294922,	744.351196
494.441406,	712.214783
492.587891,	701.825195
490.734375,	658.210266
488.878906,	557.114807
487.023438,	433.070587
485.167969,	344.844666
483.3125,	324.335297
481.455078,	297.452179
479.599609,	269.304993
477.742188,	269.243408
475.884766,	280.663544
474.025391,	298.455658
472.167969,	316.239624
470.308594,	291.944763
468.449219,	257.464417
466.587891,	221.72551
464.728516,	214.030807
462.867188,	219.076599
461.005859,	215.206207
459.144531,	235.52681
457.283203,	236.745682
455.419922,	234.146378
453.558594,	230.275986
451.695312,	223.863449
449.830078,	225.083801
447.966797,	222.489456
446.101562,	214.811981
444.236328,	216.033493
442.371094,	215.983948
440.505859,	224.825806
438.638672,	201.915817
436.773438,	189.173294
434.90625,	190.3992
433.039062,	177.665115
431.169922,	167.474365
429.302734,	163.630539
427.433594,	169.933762
425.564453,	178.769821
423.693359,	188.869385
421.824219,	172.351227
419.953125,	168.51062
418.082031,	162.138351
416.210938,	172.232376
414.339844,	168.394409
412.466797,	163.292343
410.59375,	174.644638
408.720703,	188.522202
406.847656,	213.777985
404.972656,	278.226807
403.099609,	421.037292
401.224609,	683.870056
399.349609,	946.581726
397.472656,	1004.484802
395.597656,	1025.728027
393.720703,	848.682739
391.84375,	694.44635
389.964844,	581.938171
388.087891,	489.6745
386.208984,	434.044312
384.330078,	397.361725
382.451172,	368.263031
380.572266,	426.178741
378.691406,	652.987122
376.810547,	1111.586426
374.929688,	1165.510254
373.048828,	705.443359
371.167969,	532.738647
369.285156,	435.661957
367.402344,	390.242828
365.519531,	373.791412
363.634766,	403.903442
361.751953,	511.996002
359.867188,	504.331573
357.982422,	438.830505
356.097656,	487.756073
354.210938,	554.254333
352.324219,	537.791382
350.439453,	512.542358
348.550781,	479.769318
346.664062,	434.454895
344.775391,	407.991791
342.888672,	443.039276
341,	425.369812
339.109375,	432.798248
337.220703,	376.259125
335.330078,	332.285248
333.439453,	327.193787
331.548828,	324.611328
329.65625,	294.463257
327.765625,	285.625793
325.873047,	255.500671
323.980469,	260.450073
322.087891,	252.878433
320.193359,	254.07135
318.298828,	252.761124
316.404297,	260.208496
314.509766,	298.920166
312.615234,	820.276611
310.71875,	2078.968506
308.822266,	679.913574
306.925781,	312.387726
305.029297,	282.332916
303.130859,	251.043045
301.232422,	222.265076
299.333984,	229.703766
297.435547,	204.68837
295.537109,	217.118881
293.636719,	254.493988
291.736328,	263.165405
289.835938,	332.9328
287.935547,	432.58728
286.033203,	513.5
284.130859,	579.422119
282.228516,	566.829468
280.326172,	569.188538
278.421875,	612.637939
276.519531,	666.026367
274.615234,	689.518982
272.710938,	730.421265
270.804688,	905.660583
268.900391,	1156.68689
266.994141,	1360.344727
265.087891,	2069.877441
263.179688,	3041.32666
261.273438,	4029.718994
259.365234,	4713.286621
257.457031,	4720.881348
255.548828,	4502.478516
253.638672,	10147.455078
251.730469,	96758.109375
249.820312,	65215.417969
247.910156,	13636.25293
245.998047,	4860.625488
244.087891,	3099.955322
242.175781,	2438.475098
240.263672,	2075.999756
238.351562,	1872.300049
236.4375,	1518.797729
234.523438,	1181.561401
232.609375,	912.586182
230.695312,	798.480896
228.78125,	700.518616
226.865234,	690.455688
224.949219,	737.303467
223.033203,	829.890686
221.117188,	992.915405
219.199219,	988.974304
217.28125,	837.959473
215.363281,	752.504211
213.445312,	647.323242
211.527344,	644.701477
209.607422,	633.4375
207.6875,	536.999451
205.767578,	457.885315
203.845703,	306.007935
201.925781,	256.591644
200.003906,	226.931671
198.082031,	230.57756
196.158203,	216.963257
194.236328,	195.960602
192.3125,	174.967773
190.388672,	188.477356
188.464844,	188.433121
186.539062,	171.150681
184.613281,	172.341507
182.6875,	189.531128
180.761719,	195.638763
178.835938,	175.910507
176.908203,	179.558731
174.980469,	173.368698
173.052734,	181.932877
171.125,	175.745178
169.195312,	189.219528
167.265625,	183.032974
165.335938,	191.586761
163.40625,	182.946869
161.476562,	202.544495
159.544922,	187.769775
157.613281,	196.314331
155.681641,	219.574951
153.748047,	247.730133
151.816406,	237.863007
149.882812,	230.452118
147.947266,	221.819168
146.013672,	284.253723
144.078125,	282.961761
142.144531,	322.083984
140.208984,	413.835449
138.271484,	487.182434
136.335938,	430.773285
134.398438,	299.757263
132.460938,	346.168549
130.523438,	441.474762
128.583984,	481.717438
126.644531,	382.593811
124.707031,	329.955078
122.765625,	326.211853
120.826172,	428.739014
118.884766,	432.3013
116.943359,	395.572113
115.001953,	373.507599
113.060547,	322.16568
111.117188,	286.708466
109.173828,	253.707489
107.230469,	201.210754
105.287109,	157.27301
103.34375,	130.420395
101.398438,	97.487511
99.453125,	69.443413
