1870.222656,	22.820755
1868.664062,	19.777988
1867.105469,	21.294968
1865.546875,	15.207546
1863.988281,	24.327042
1862.429688,	24.322008
1860.871094,	27.356598
1859.310547,	22.792446
1857.75,	22.787727
1856.189453,	21.264141
1854.628906,	13.666974
1853.068359,	19.737095
1851.507812,	21.250929
1849.945312,	15.176089
1848.382812,	18.207533
1846.820312,	18.203756
1845.257812,	15.166651
1843.695312,	18.196205
1842.132812,	13.644323
1840.568359,	12.12577
1839.003906,	24.246506
1837.441406,	13.635828
1835.875,	24.236437
1834.310547,	15.144628
1832.746094,	18.169777
1831.179688,	22.7075
1829.615234,	12.10815
1828.048828,	22.698061
1826.482422,	18.154673
1824.914062,	18.150898
1823.347656,	13.610341
1821.779297,	15.119454
1820.212891,	19.651199
1818.644531,	13.601845
1817.076172,	21.154018
1815.505859,	15.106867
1813.9375,	19.634836
1812.367188,	18.120687
1810.798828,	21.136396
1809.228516,	18.113134
1807.658203,	25.654924
1806.085938,	19.61438
1804.515625,	22.627256
1802.945312,	15.081691
1801.373047,	18.094254
1799.800781,	15.075397
1798.228516,	28.637274
1796.65625,	18.082922
1795.082031,	16.57255
1793.509766,	18.075369
1791.935547,	16.565626
1790.361328,	18.067816
1788.787109,	21.074713
1787.210938,	24.080351
1785.636719,	22.570608
1784.060547,	10.530747
1782.486328,	21.057089
1780.910156,	16.541393
1779.333984,	25.55862
1777.755859,	18.037601
1776.179688,	19.536644
1774.601562,	21.035057
1773.025391,	21.030651
1771.447266,	19.52437
1769.867188,	13.514039
1768.289062,	21.017431
1766.710938,	24.014887
1765.130859,	16.506773
1763.550781,	13.502708
1761.970703,	23.999779
1760.390625,	17.996058
1758.810547,	22.490351
1757.228516,	13.491378
1755.648438,	14.987272
1754.066406,	19.479362
1752.484375,	11.984782
1750.902344,	14.977831
1749.318359,	19.467089
1747.736328,	28.445919
1746.152344,	13.47155
1744.568359,	20.951338
1742.984375,	5.984838
1741.400391,	16.454842
1739.816406,	25.42486
1738.230469,	16.447918
1736.646484,	10.464654
1735.060547,	14.946359
1733.474609,	14.943212
1731.888672,	20.91609
1730.300781,	16.430609
1728.714844,	19.4139
1727.126953,	20.902872
1725.539062,	11.94198
1723.951172,	22.386494
1722.363281,	13.429064
1720.773438,	13.426231
1719.185547,	17.897865
1717.595703,	17.894089
1716.005859,	16.399454
1714.416016,	11.924357
1712.826172,	17.882761
1711.234375,	17.878984
1709.644531,	19.364809
1708.052734,	16.382147
1706.460938,	11.911771
1704.869141,	16.375223
1703.277344,	17.860104
1701.683594,	13.392246
1700.089844,	20.827978
1698.498047,	14.873981
1696.904297,	11.896667
1695.310547,	19.327993
1693.714844,	22.296812
1692.121094,	16.347534
1690.525391,	19.315723
1688.929688,	17.826122
1687.333984,	17.822348
1685.738281,	20.788334
1684.142578,	17.814796
1682.544922,	13.358266
1680.947266,	19.291183
1679.349609,	25.221582
1677.751953,	19.283003
1676.154297,	19.278913
1674.556641,	20.757502
1672.957031,	19.270735
1671.357422,	17.784595
1669.757812,	23.70776
1668.158203,	19.258465
1666.558594,	20.735483
1664.958984,	20.731079
1663.357422,	14.804768
1661.755859,	17.761946
1660.154297,	13.318629
1658.552734,	17.754398
1656.951172,	19.229841
1655.347656,	17.746849
1653.746094,	16.264484
1652.142578,	17.7393
1650.539062,	13.301645
1648.933594,	19.209398
1647.330078,	10.341321
1645.726562,	11.816136
1644.121094,	22.150539
1642.515625,	19.193045
1640.910156,	13.284663
1639.304688,	17.70911
1637.697266,	14.754447
1636.091797,	16.226433
1634.484375,	17.69779
1632.876953,	7.372507
1631.269531,	7.370935
1629.660156,	17.68647
1628.052734,	16.209139
1626.443359,	8.839462
1624.833984,	16.202223
1623.224609,	10.308305
1621.615234,	19.139908
1620.005859,	10.303904
1618.394531,	26.490093
1616.785156,	19.127647
1615.173828,	16.181475
1613.5625,	13.236559
1611.951172,	17.644972
1610.337891,	17.641201
1608.726562,	17.637428
1607.113281,	17.633657
1605.5,	19.099043
1603.886719,	11.750743
1602.271484,	20.559399
1600.658203,	20.554998
1599.042969,	14.679
1597.427734,	13.208271
1595.8125,	17.607258
1594.197266,	11.735658
1592.582031,	16.133072
1590.964844,	17.595943
1589.349609,	17.592175
1587.732422,	16.122704
1586.115234,	11.723088
1584.496094,	13.185647
1582.878906,	16.112333
1581.259766,	11.715548
1579.642578,	16.105423
1578.023438,	20.493412
1576.404297,	20.489014
1574.783203,	14.631868
1573.164062,	24.868835
1571.542969,	16.088144
1569.921875,	17.546934
1568.300781,	13.157373
1566.679688,	23.38586
1565.058594,	18.996927
1563.435547,	11.687904
1561.8125,	20.449436
1560.189453,	8.762159
1558.566406,	21.900688
1556.943359,	16.057051
1555.320312,	20.43185
1553.695312,	17.509245
1552.070312,	24.799427
1550.445312,	18.960186
1548.820312,	21.872427
1547.195312,	10.204935
1545.568359,	13.117805
1543.941406,	16.029419
1542.314453,	14.569059
1540.6875,	14.56592
1539.060547,	17.475338
1537.433594,	17.471571
1535.804688,	17.467804
1534.175781,	14.553364
1532.546875,	14.550225
1530.917969,	20.365921
1529.289062,	13.089553
1527.658203,	17.448971
1526.029297,	10.17637
1524.398438,	20.348345
1522.767578,	24.703369
1521.136719,	11.622604
1519.503906,	13.072606
1517.873047,	26.139565
1516.240234,	20.32638
1514.607422,	10.160994
1512.974609,	13.061311
1511.339844,	23.215088
1509.707031,	17.407551
1508.072266,	21.754732
1506.4375,	15.95002
1504.802734,	20.295633
1503.167969,	14.493745
1501.533203,	14.490608
1499.896484,	11.589977
1498.259766,	13.035901
1496.623047,	10.136839
1494.986328,	17.373674
1493.349609,	14.474926
1491.712891,	20.260506
1490.074219,	20.256115
1488.435547,	14.465518
1486.796875,	14.462382
1485.158203,	7.229624
1483.517578,	8.673667
1481.878906,	2.890595
1480.238281,	18.784794
1478.597656,	11.557365
1476.957031,	14.443572
1475.316406,	11.552349
1473.673828,	11.549842
1472.03125,	15.877584
1470.390625,	18.760344
1468.748047,	17.313478
1467.103516,	15.867241
1465.460938,	11.537305
1463.816406,	14.418497
1462.173828,	14.415363
1460.529297,	14.41223
1458.884766,	12.968186
1457.238281,	17.287155
1455.59375,	21.604244
1453.947266,	20.159575
1452.300781,	11.517251
1450.654297,	15.832774
1449.007812,	14.390298
1447.359375,	14.387165
1445.712891,	15.822436
1444.064453,	20.133261
1442.416016,	17.253323
1440.767578,	12.937173
1439.119141,	8.622903
1437.46875,	15.80521
1435.818359,	14.365241
1434.169922,	17.234531
1432.517578,	17.230774
1430.867188,	15.791431
1429.216797,	12.917444
1427.564453,	17.219501
1425.912109,	17.215746
1424.259766,	8.605994
1422.607422,	14.340193
1420.955078,	11.46965
1419.300781,	15.767325
1417.646484,	17.196962
1415.994141,	14.327672
1414.337891,	17.189451
1412.683594,	18.617836
1411.029297,	11.454627
1409.373047,	14.315154
1407.716797,	10.018417
1406.060547,	22.894234
1404.404297,	17.16692
1402.748047,	21.453957
1401.089844,	22.879215
1399.431641,	15.726019
1397.773438,	14.293252
1396.115234,	15.719136
1394.457031,	15.715695
1392.796875,	9.998708
1391.136719,	14.28074
1389.478516,	11.42209
1387.818359,	19.98428
1386.15625,	11.417086
1384.496094,	4.280469
1382.833984,	11.412083
1381.171875,	19.966766
1379.509766,	9.981194
1377.847656,	27.085873
1376.185547,	17.103115
1374.521484,	12.824523
1372.857422,	17.095613
1371.193359,	21.364826
1369.529297,	9.968064
1367.865234,	15.660663
1366.201172,	11.387073
1364.535156,	17.076859
1362.869141,	15.650349
1361.203125,	11.379572
1359.537109,	14.22134
1357.869141,	14.218215
1356.203125,	19.901127
1354.535156,	11.369573
1352.867188,	18.471495
1351.199219,	21.308577
1349.529297,	12.782334
1347.861328,	17.039364
1346.191406,	15.61598
1344.521484,	11.354578
1342.851562,	14.190099
1341.179688,	14.186975
1339.509766,	15.602238
1337.837891,	17.016874
1336.166016,	15.595367
1334.494141,	18.426828
1332.822266,	11.337089
1331.150391,	11.334591
1329.476562,	16.99814
1327.802734,	15.578194
1326.128906,	19.822422
1324.455078,	19.818052
1322.78125,	16.983156
1321.105469,	15.564459
1319.429688,	15.561026
1317.753906,	18.386246
1316.078125,	15.554159
1314.402344,	4.241107
1312.724609,	16.960684
1311.046875,	8.47847
1309.371094,	18.365961
1307.691406,	15.536997
1306.013672,	15.533565
1304.335938,	11.294642
1302.65625,	12.703665
1300.976562,	23.990509
1299.296875,	8.465366
1297.617188,	15.516408
1295.935547,	16.923248
1294.255859,	16.919504
1292.574219,	9.867528
1290.892578,	19.73069
1289.210938,	12.681209
1287.527344,	9.86098
1285.845703,	9.858797
1284.162109,	15.488966
1282.478516,	15.485537
1280.794922,	12.667178
1279.111328,	11.25722
1277.425781,	12.661568
1275.740234,	9.845704
1274.054688,	18.280827
1272.369141,	14.059058
1270.683594,	12.650347
1268.998047,	16.86339
1267.310547,	15.454679
1265.623047,	11.237274
1263.935547,	15.447824
1262.248047,	15.444397
1260.558594,	2.807449
1258.871094,	22.454609
1257.181641,	11.224812
1255.492188,	11.22232
1253.802734,	18.23222
1252.111328,	18.228172
1250.421875,	15.420411
1248.730469,	18.220074
1247.039062,	12.611094
1245.347656,	14.009213
1243.654297,	15.40671
1241.962891,	16.803583
1240.269531,	12.599885
1238.576172,	16.79611
1236.882812,	18.19174
1235.189453,	20.985798
1233.494141,	12.588677
1231.798828,	15.382738
1230.103516,	16.777433
1228.408203,	20.967123
1226.712891,	19.564959
1225.017578,	12.574672
1223.320312,	16.762495
1221.623047,	20.948452
1219.925781,	13.962523
1218.228516,	12.563471
1216.529297,	19.53882
1214.832031,	13.95319
1213.132812,	22.320126
1211.433594,	19.525755
1209.732422,	12.549472
1208.033203,	13.940747
1206.332031,	4.181291
1204.632812,	15.32798
1202.931641,	16.717701
1201.228516,	19.49963
1199.527344,	22.280317
1197.824219,	15.314298
1196.123047,	19.486572
1194.419922,	12.524283
1192.714844,	15.304038
1191.011719,	9.736757
1189.306641,	12.51589
1187.603516,	15.29378
1185.898438,	15.290361
1184.193359,	18.066387
1182.486328,	15.283525
1180.78125,	18.058308
1179.074219,	23.609426
1177.367188,	16.661749
1175.660156,	16.65802
1173.953125,	18.04215
1172.244141,	13.87547
1170.535156,	18.034073
1168.826172,	11.095406
1167.117188,	13.866151
1165.408203,	12.476741
1163.699219,	11.087952
1161.988281,	18.013884
1160.277344,	12.468355
1158.566406,	15.235684
1156.855469,	16.617022
1155.142578,	13.844413
1153.429688,	16.60957
1151.71875,	17.989664
1150.003906,	22.136158
1148.291016,	12.448794
1146.578125,	13.82889
1144.863281,	8.295471
1143.148438,	11.058146
1141.433594,	19.34741
1139.71875,	16.579771
1138.001953,	15.194709
1136.287109,	13.810269
1134.570312,	15.187882
1132.853516,	20.706095
1131.136719,	17.94125
1129.417969,	19.317001
1127.701172,	19.312658
1125.982422,	17.92915
1124.263672,	16.546263
1122.542969,	8.27127
1120.824219,	19.295288
1119.103516,	22.046797
1117.384766,	20.664219
1115.664062,	12.395741
1113.941406,	12.39295
1112.220703,	19.273581
1110.498047,	15.140118
1108.775391,	19.2649
1107.052734,	20.636314
1105.330078,	12.378999
1103.607422,	20.627014
1101.882812,	17.872717
1100.158203,	16.494173
1098.433594,	12.36784
1096.708984,	10.991157
1094.984375,	15.109431
1093.257812,	12.359473
1091.53125,	17.848543
1089.804688,	12.353896
1088.078125,	10.978762
1086.351562,	16.464426
1084.623047,	19.204159
1082.894531,	17.828407
1081.166016,	19.195486
1079.4375,	21.932743
1077.708984,	12.33438
1075.978516,	9.591239
1074.248047,	12.328805
1072.517578,	15.065133
1070.787109,	12.323232
1069.056641,	13.689384
1067.324219,	16.423544
1065.591797,	12.314872
1063.859375,	13.680095
1062.126953,	10.9416
1060.394531,	10.939123
1058.660156,	9.569566
1056.925781,	15.034485
1055.191406,	17.764004
1053.457031,	8.196914
1051.720703,	13.658429
1049.986328,	12.289801
1048.25,	17.747911
1046.513672,	10.919316
1044.777344,	19.104473
1043.039062,	13.642959
1041.302734,	17.731825
1039.564453,	19.09148
1037.826172,	23.177252
1036.087891,	9.541409
1034.347656,	24.529486
1032.609375,	13.624399
1030.869141,	16.345568
1029.128906,	25.874607
1027.386719,	14.976634
1025.646484,	16.334436
1023.904297,	12.248044
1022.162109,	13.605845
1020.419922,	20.404131
1018.677734,	17.679562
1016.935547,	23.114172
1015.191406,	14.952828
1013.447266,	17.667507
1011.703125,	10.869839
1009.958984,	19.017891
1008.212891,	14.93923
1006.46875,	8.146816
1004.722656,	13.574938
1002.976562,	10.857478
1001.228516,	16.282509
999.482422,	10.852534
997.734375,	17.631353
995.986328,	18.983286
994.238281,	16.267681
992.490234,	16.263973
990.740234,	16.260267
988.992188,	17.611275
987.242188,	20.316069
985.492188,	23.019629
983.740234,	24.368166
981.990234,	16.241737
980.238281,	23.00388
978.486328,	13.528606
976.734375,	17.583176
974.982422,	18.931404
973.228516,	18.927082
971.474609,	9.461381
969.720703,	17.567122
967.966797,	16.212101
966.212891,	14.857697
964.457031,	20.255867
962.701172,	12.150743
960.945312,	14.847514
959.189453,	10.795723
957.433594,	22.935667
955.675781,	22.930422
953.917969,	16.182478
952.160156,	16.178776
950.402344,	20.218842
948.644531,	17.518986
946.884766,	16.167669
945.125,	20.20496
943.365234,	20.200335
941.605469,	20.195707
939.84375,	22.883226
938.083984,	10.76611
936.322266,	22.872742
934.560547,	18.832058
932.796875,	18.827742
931.035156,	8.067183
929.271484,	14.786443
927.507812,	17.470879
925.744141,	16.123266
923.980469,	13.432973
922.214844,	20.144836
920.451172,	16.112169
918.685547,	17.450844
916.917969,	8.052386
915.152344,	21.4681
913.386719,	13.414481
911.619141,	14.75254
909.851562,	14.74915
908.083984,	16.086285
906.314453,	14.742372
904.546875,	17.418798
902.777344,	13.395995
901.007812,	22.767954
899.236328,	14.728817
897.466797,	9.370728
895.695312,	20.07551
893.923828,	20.07089
892.152344,	16.053017
890.380859,	20.061651
888.609375,	14.70849
886.835938,	9.357793
885.0625,	14.701716
883.289062,	21.379389
881.515625,	14.694943
879.740234,	17.362749
877.964844,	14.68817
876.189453,	21.359686
874.414062,	18.685415
872.638672,	18.681107
870.861328,	17.342741
869.083984,	20.006239
867.306641,	13.334414
865.529297,	11.998203
863.751953,	14.661086
861.972656,	14.657701
860.193359,	14.654316
858.414062,	18.646641
856.634766,	14.647548
854.853516,	14.644163
853.074219,	18.633718
851.292969,	17.29874
849.511719,	18.625107
847.728516,	17.290743
845.947266,	15.956994
844.164062,	13.29442
842.380859,	15.949614
840.597656,	13.288269
838.814453,	13.285193
837.029297,	18.594967
835.244141,	19.918566
833.458984,	21.24155
831.673828,	7.963737
829.888672,	19.90473
828.101562,	11.940071
826.314453,	11.937304
824.527344,	11.934538
822.740234,	13.257524
820.951172,	18.556231
819.164062,	18.551928
817.375,	18.547625
815.583984,	10.596184
813.794922,	15.890588
812.005859,	19.858625
810.214844,	13.236011
808.423828,	11.909644
806.632812,	9.260905
804.839844,	10.581434
803.048828,	17.190836
801.255859,	14.542713
799.462891,	17.18285
797.667969,	19.821756
795.875,	14.532576
794.080078,	13.208361
792.285156,	25.09005
790.490234,	17.162884
788.695312,	19.798719
786.898438,	22.433329
785.103516,	15.831606
783.306641,	25.060875
781.507812,	18.461609
779.710938,	18.45731
777.912109,	21.089155
776.115234,	23.719774
774.316406,	21.07933
772.515625,	25.025873
770.716797,	19.752663
768.916016,	21.064596
767.115234,	15.794764
765.314453,	23.686621
763.513672,	18.418629
761.710938,	21.044952
759.908203,	23.670046
758.105469,	27.60861
756.302734,	27.602165
754.5,	19.711229
752.695312,	27.589277
750.890625,	31.523237
749.085938,	30.202713
747.28125,	26.257092
745.476562,	28.876051
743.669922,	28.869301
741.863281,	30.174486
740.056641,	22.297667
738.248047,	23.603773
736.441406,	24.909266
734.632812,	19.660608
732.824219,	24.89761
731.015625,	20.9615
729.205078,	18.337019
727.396484,	19.642206
725.585938,	17.019258
723.775391,	15.706406
721.962891,	19.628407
720.152344,	19.623808
718.339844,	22.235104
716.527344,	19.614609
714.714844,	14.380674
712.902344,	18.298384
711.087891,	24.827696
709.273438,	16.983387
707.458984,	20.897724
705.644531,	19.587019
703.828125,	13.054947
702.013672,	20.883011
700.197266,	13.048818
698.380859,	7.827451
696.5625,	19.564032
694.746094,	16.951509
692.927734,	13.036558
691.109375,	19.550241
689.291016,	23.454773
687.470703,	16.935575
685.650391,	24.746174
683.832031,	16.927608
682.009766,	13.018174
680.189453,	19.522665
678.369141,	16.915661
676.546875,	11.708085
674.724609,	26.011839
672.902344,	19.504284
671.078125,	14.299772
669.255859,	14.296403
667.431641,	15.592401
665.607422,	25.981209
663.78125,	24.676329
661.957031,	22.073614
660.130859,	24.664692
658.304688,	22.063202
656.478516,	28.545643
654.650391,	37.619465
652.824219,	27.235252
650.996094,	23.338989
649.167969,	36.296524
647.339844,	32.399956
645.509766,	41.462147
643.679688,	34.975418
641.849609,	34.967152
640.019531,	33.664112
638.189453,	37.539558
636.357422,	36.236519
634.525391,	33.640236
632.693359,	38.806473
630.861328,	36.210804
629.027344,	41.373985
627.195312,	33.608402
625.361328,	34.892773
623.527344,	45.220657
621.691406,	32.29282
619.855469,	43.907829
618.021484,	38.733021
616.185547,	38.723843
614.347656,	32.262218
612.511719,	37.415298
610.673828,	42.565933
608.835938,	37.397552
606.998047,	23.206768
605.158203,	34.801891
603.320312,	33.504978
601.480469,	30.920328
599.640625,	42.505356
597.800781,	32.193378
595.958984,	21.886297
594.117188,	25.742468
592.275391,	28.309984
590.433594,	25.730232
588.591797,	25.724115
586.748047,	21.860298
584.904297,	24.426287
583.060547,	32.132206
581.216797,	24.414665
579.371094,	21.8395
577.525391,	21.834301
575.679688,	20.545038
573.833984,	28.242701
571.988281,	34.65324
570.140625,	19.247213
568.292969,	23.09115
566.445312,	32.0634
564.597656,	33.337986
562.748047,	35.893883
560.898438,	33.322086
559.048828,	24.344946
557.199219,	19.215109
555.349609,	26.894732
553.498047,	19.205936
551.646484,	17.921261
549.794922,	17.916981
547.941406,	17.912703
546.089844,	20.466768
544.236328,	26.856215
542.382812,	23.014111
540.529297,	44.73896
538.673828,	48.562115
536.818359,	45.995209
534.962891,	44.706867
533.107422,	38.311005
531.251953,	40.855289
529.394531,	42.121933
527.537109,	42.111847
525.679688,	53.584061
523.822266,	80.356842
521.962891,	67.585587
520.103516,	53.545555
518.244141,	66.27861
516.384766,	67.537003
514.525391,	104.466156
512.664062,	87.883362
510.802734,	96.775848
508.941406,	110.756294
507.078125,	108.184204
505.216797,	118.33783
503.353516,	119.581558
501.490234,	123.368355
499.625,	124.610252
497.761719,	134.750137
495.896484,	130.904984
494.03125,	123.249817
492.166016,	123.220184
490.298828,	110.490501
488.433594,	81.260818
486.566406,	60.93095
484.699219,	58.378109
482.830078,	50.751354
480.962891,	46.933701
479.09375,	44.386051
477.224609,	48.178967
475.353516,	43.097111
473.484375,	50.690266
471.613281,	46.877193
469.742188,	36.732727
467.871094,	44.321911
466,	27.852768
464.126953,	30.377508
462.253906,	34.166451
460.380859,	32.893085
458.505859,	35.414772
456.632812,	34.141712
454.757812,	39.190277
452.882812,	36.653019
451.007812,	25.271835
449.130859,	25.265728
447.253906,	23.996639
445.376953,	32.829567
443.5,	29.034517
441.621094,	25.241299
439.744141,	30.28223
437.865234,	29.013449
435.986328,	31.528723
434.105469,	28.999403
432.226562,	27.731842
430.345703,	28.985357
428.464844,	25.198551
426.582031,	25.192446
424.701172,	20.149071
422.818359,	26.439243
420.935547,	32.726364
419.052734,	25.16802
417.167969,	28.936201
415.283203,	20.124645
413.398438,	22.634731
411.513672,	23.886415
409.628906,	22.623741
407.742188,	26.387953
405.855469,	36.431652
403.96875,	41.446632
402.082031,	56.504398
400.193359,	82.852974
398.304688,	124.249237
396.416016,	156.842194
394.527344,	175.620514
392.636719,	117.887932
390.746094,	91.528984
388.855469,	62.675819
386.964844,	50.128445
385.074219,	46.357517
383.181641,	43.841022
381.289062,	53.848701
379.396484,	60.095528
377.501953,	111.399956
375.609375,	191.461075
373.714844,	133.86496
371.820312,	86.30307
369.923828,	62.523193
368.027344,	62.507931
366.132812,	59.992962
364.236328,	47.48283
362.337891,	44.972744
360.441406,	72.438385
358.542969,	54.939827
356.644531,	53.67807
354.744141,	66.145164
352.845703,	64.881271
350.945312,	51.143871
349.044922,	51.131355
347.144531,	46.131638
345.242188,	56.092312
343.341797,	44.862862
341.439453,	48.589527
339.537109,	44.840885
337.632812,	41.09407
335.728516,	43.573936
333.826172,	34.850605
331.919922,	33.597698
330.015625,	37.321621
328.109375,	32.337467
326.203125,	33.572975
324.296875,	31.078457
322.390625,	36.04216
320.482422,	33.548252
318.576172,	32.297787
316.667969,	36.015606
314.757812,	38.489979
312.849609,	42.204437
310.939453,	132.787186
309.029297,	126.551041
307.119141,	39.69252
305.207031,	23.561634
303.294922,	27.275177
301.382812,	29.747414
299.470703,	26.022577
297.558594,	30.971628
295.644531,	32.202557
293.730469,	27.241602
291.816406,	27.234886
289.900391,	32.178749
287.986328,	42.069523
286.070312,	43.296177
284.154297,	34.628395
282.236328,	37.092697
280.318359,	29.66683
278.402344,	44.489258
276.482422,	49.420296
274.564453,	40.761673
272.644531,	40.751598
270.726562,	58.02581
268.804688,	69.120041
266.884766,	77.740814
264.962891,	93.759369
263.042969,	117.170212
261.121094,	175.095276
259.197266,	252.71582
257.275391,	374.66626
255.351562,	321.591034
253.427734,	1198.584473
251.501953,	2477.856445
249.578125,	1499.6427
247.652344,	610.540527
245.726562,	227.665283
243.800781,	151.329102
241.873047,	124.23127
239.947266,	102.065704
238.017578,	106.95797
236.089844,	93.411346
234.162109,	84.786606
232.232422,	72.480675
230.302734,	50.355412
228.373047,	47.887142
226.441406,	45.420094
224.511719,	51.54512
222.580078,	49.078377
220.646484,	49.066166
218.714844,	41.695858
216.78125,	47.815693
214.847656,	53.932476
212.914062,	41.664711
210.978516,	42.879459
209.044922,	36.744659
207.109375,	34.286465
205.173828,	33.053703
203.236328,	19.582495
201.298828,	30.590014
199.363281,	29.359083
197.423828,	24.459795
195.486328,	28.12174
193.546875,	28.114717
191.607422,	26.885618
189.667969,	29.322435
187.728516,	23.207792
185.787109,	28.086618
183.845703,	18.312778
181.904297,	15.867105
179.960938,	25.625063
178.019531,	26.838583
176.076172,	21.953342
174.132812,	32.921768
172.1875,	23.161366
170.244141,	14.624566
168.298828,	23.149759
166.351562,	19.489645
164.40625,	23.138151
162.458984,	20.697363
160.511719,	23.126541
158.564453,	25.554499
156.617188,	21.898357
154.667969,	25.541668
152.71875,	23.103323
150.769531,	20.666201
148.820312,	19.445652
146.869141,	19.440763
144.917969,	23.080103
142.966797,	24.288733
141.013672,	14.569573
139.0625,	23.062685
137.109375,	21.843359
135.15625,	23.051073
133.201172,	16.980722
131.248047,	24.252064
129.292969,	15.759869
127.335938,	23.027847
125.380859,	21.810354
123.423828,	18.170712
121.466797,	19.377201
119.509766,	16.950771
117.552734,	18.156958
115.59375,	20.572689
113.634766,	22.987196
111.675781,	24.190935
109.714844,	19.347858
107.755859,	24.178709
105.794922,	13.294927
103.832031,	16.916536
101.871094,	12.080183
99.908203,	9.6617
