599.421875,	345.774658
597.591797,	345.774658
595.761719,	369.001862
593.929688,	402.574127
592.097656,	363.658325
590.267578,	358.400604
588.435547,	367.374512
586.601562,	332.372833
584.769531,	336.176544
582.935547,	319.295441
581.101562,	345.071167
579.267578,	369.543091
577.433594,	328.121277
575.597656,	346.128265
573.763672,	355.08844
571.927734,	330.480164
570.089844,	316.20816
568.253906,	305.813629
566.416016,	337.995819
564.580078,	357.265656
562.742188,	358.474121
560.902344,	360.971161
559.064453,	349.289246
557.224609,	335.0354
555.384766,	337.53595
553.544922,	342.611389
551.705078,	307.765137
549.863281,	285.80899
548.023438,	332.080933
546.181641,	352.594971
544.337891,	355.087982
542.496094,	371.728638
540.652344,	416.652954
538.810547,	446.128723
536.966797,	487.159485
535.121094,	510.180298
533.277344,	512.63385
531.431641,	536.922791
529.585938,	576.611206
527.740234,	684.329285
525.894531,	1178.370117
524.046875,	4333.823242
522.201172,	3672.06958
520.353516,	1200.654907
518.503906,	765.627869
516.65625,	729.552795
514.806641,	815.272156
512.958984,	825.33905
511.109375,	820.025757
509.257812,	863.392761
507.408203,	817.090515
505.556641,	915.496033
503.705078,	862.802246
501.853516,	996.987549
500.001953,	1090.166382
498.148438,	1103.989258
496.294922,	1084.552979
494.441406,	1088.141357
492.587891,	1021.417725
490.734375,	994.344788
488.878906,	811.394287
487.023438,	665.574585
485.167969,	586.235962
483.3125,	529.917908
481.455078,	518.30719
479.599609,	548.820557
477.742188,	528.278564
475.884766,	517.951782
474.025391,	520.384216
472.167969,	533.016785
470.308594,	512.496948
468.449219,	480.515259
466.587891,	400.125366
464.728516,	414.047699
462.867188,	406.310669
461.005859,	418.951721
459.144531,	440.498779
457.283203,	417.487
455.419922,	409.756165
453.558594,	384.217407
451.695312,	368.865936
449.830078,	377.682983
447.966797,	369.968201
446.101562,	372.425507
444.236328,	379.964813
442.371094,	384.959625
440.505859,	369.628876
438.638672,	370.813965
436.773438,	351.68457
434.90625,	363.027802
433.039062,	331.218536
431.169922,	331.142487
429.302734,	322.187256
427.433594,	310.699799
425.564453,	323.307129
423.693359,	352.387177
421.824219,	319.356689
419.953125,	311.681305
418.082031,	312.876343
416.210938,	311.537994
414.339844,	291.208374
412.466797,	325.318848
410.59375,	323.978485
408.720703,	340.352173
406.847656,	387.077301
404.972656,	438.839569
403.099609,	531.038025
401.224609,	719.264404
399.349609,	998.397278
397.472656,	1252.131348
395.597656,	1480.484253
393.720703,	1352.588135
391.84375,	955.81073
389.964844,	776.338318
388.087891,	638.59613
386.208984,	589.240417
384.330078,	544.953186
382.451172,	533.476929
380.572266,	544.701843
378.691406,	710.974426
376.810547,	1204.848755
374.929688,	1454.052856
373.048828,	1051.866455
371.167969,	749.360535
369.285156,	634.605835
367.402344,	527.457214
365.519531,	533.628174
363.634766,	528.471802
361.751953,	586.216553
359.867188,	611.234741
357.982422,	579.65863
356.097656,	618.494812
354.210938,	652.285706
352.324219,	652.134888
350.439453,	577.866394
348.550781,	558.893555
346.664062,	528.628662
344.775391,	493.356232
342.888672,	510.812988
341,	486.853943
339.109375,	506.813019
337.220703,	474.086517
335.330078,	417.550903
333.439453,	431.243927
331.548828,	404.824158
329.65625,	387.187866
327.765625,	367.054199
325.873047,	358.201904
323.980469,	353.110199
322.087891,	361.791412
320.193359,	365.46225
318.298828,	369.131348
316.404297,	390.312714
314.509766,	403.97998
312.615234,	611.456238
310.71875,	2216.48291
308.822266,	2072.236572
306.925781,	648.516907
305.029297,	391.018585
303.130859,	368.446259
301.232422,	354.625183
299.333984,	349.549194
297.435547,	323.257843
295.537109,	343.147675
293.636719,	350.552979
291.736328,	361.696533
289.835938,	433.934875
287.935547,	487.43985
286.033203,	518.485413
284.130859,	494.689453
282.228516,	479.624969
280.326172,	465.812927
278.421875,	486.872833
276.519531,	470.575653
274.615234,	511.538483
272.710938,	530.084229
270.804688,	620.775574
268.900391,	727.593384
266.994141,	779.649109
265.087891,	1018.155945
263.179688,	1544.899536
261.273438,	2219.265625
259.365234,	3131.838623
257.457031,	4318.469727
255.548828,	3927.562012
253.638672,	5197.870605
251.730469,	27615.386719
249.820312,	33507.949219
247.910156,	14792.456055
245.998047,	4328.548828
244.087891,	2204.688232
242.175781,	1609.12085
240.263672,	1359.624878
238.351562,	1190.787842
236.4375,	1066.627075
234.523438,	941.285889
232.609375,	736.755432
230.695312,	672.209534
228.78125,	587.891052
226.865234,	587.75354
224.949219,	569.059692
223.033203,	594.899292
221.117188,	618.253662
219.199219,	619.345154
217.28125,	594.481567
215.363281,	574.572144
213.445312,	528.729675
211.527344,	469.322906
209.607422,	433.404572
207.6875,	388.861694
205.767578,	299.908722
203.845703,	262.82132
201.925781,	262.759705
200.003906,	262.69809
198.082031,	257.704315
196.158203,	236.687195
194.236328,	225.539551
192.3125,	220.557968
190.388672,	225.433716
188.464844,	236.465088
186.539062,	243.797379
184.613281,	233.892029
182.6875,	246.144318
180.761719,	239.934341
178.835938,	230.036819
176.908203,	234.902176
174.980469,	220.092178
173.052734,	233.562485
171.125,	218.75972
169.195312,	215.022186
167.265625,	233.397751
165.335938,	221.061646
163.40625,	217.326141
161.476562,	219.730087
159.544922,	229.496399
157.613281,	225.761475
155.681641,	240.428436
153.748047,	236.692657
151.816406,	263.611053
149.882812,	259.871521
147.947266,	245.104065
146.013672,	262.199554
144.078125,	274.387177
142.144531,	314.736053
140.208984,	369.758301
138.271484,	421.082306
136.335938,	374.479065
134.398438,	303.427765
132.460938,	275.222351
130.523438,	288.609528
128.583984,	294.654572
126.644531,	268.915771
124.707031,	252.965561
122.765625,	270.010559
120.826172,	323.691864
118.884766,	328.500153
116.943359,	318.655304
115.001953,	305.153259
113.060547,	258.708801
111.117188,	240.347107
109.173828,	214.675568
107.230469,	192.674545
105.287109,	142.642975
103.34375,	112.137169
101.398438,	81.64579
99.453125,	69.443413
