15122.177734	4655.000000	1915.152344	815.743774
15122.177734	4655.000000	1913.603516	821.865662
15122.177734	4655.000000	1912.054688	864.540588
15122.177734	4655.000000	1910.505859	868.951660
15122.177734	4655.000000	1908.957031	844.299866
15122.177734	4655.000000	1907.406250	841.067078
15122.177734	4655.000000	1905.855469	851.595642
15122.177734	4655.000000	1904.306641	796.390808
15122.177734	4655.000000	1902.755859	785.528442
15122.177734	4655.000000	1901.203125	831.204590
15122.177734	4655.000000	1899.652344	817.284058
15122.177734	4655.000000	1898.101562	821.697021
15122.177734	4655.000000	1896.548828	856.648132
15122.177734	4655.000000	1894.996094	867.157715
15122.177734	4655.000000	1893.443359	816.608093
15122.177734	4655.000000	1891.890625	830.173584
15122.177734	4655.000000	1890.337891	775.075195
15122.177734	4655.000000	1888.783203	819.151978
15122.177734	4655.000000	1887.230469	776.279358
15122.177734	4655.000000	1885.675781	817.287903
15122.177734	4655.000000	1884.121094	830.838867
15122.177734	4655.000000	1882.566406	827.618408
15122.177734	4655.000000	1881.009766	790.874634
15122.177734	4655.000000	1879.455078	789.187134
15122.177734	4655.000000	1877.898438	836.243042
15122.177734	4655.000000	1876.343750	825.409363
15122.177734	4655.000000	1874.787109	832.851013
15122.177734	4655.000000	1873.228516	825.066895
15122.177734	4655.000000	1871.671875	808.154236
15122.177734	4655.000000	1870.115234	820.159485
15122.177734	4655.000000	1868.556641	839.766296
15122.177734	4655.000000	1866.998047	827.423950
15122.177734	4655.000000	1865.439453	822.690002
15122.177734	4655.000000	1863.880859	825.559814
15122.177734	4655.000000	1862.322266	808.667664
15122.177734	4655.000000	1860.761719	805.460083
15122.177734	4655.000000	1859.203125	823.525696
15122.177734	4655.000000	1857.642578	765.628479
15122.177734	4655.000000	1856.082031	766.988037
15122.177734	4655.000000	1854.521484	813.901123
15122.177734	4655.000000	1852.960938	838.022217
15122.177734	4655.000000	1851.398438	821.151611
15122.177734	4655.000000	1849.837891	804.287903
15122.177734	4655.000000	1848.275391	799.568787
15122.177734	4655.000000	1846.712891	764.513733
15122.177734	4655.000000	1845.150391	794.686035
15122.177734	4655.000000	1843.585938	836.975708
15122.177734	4655.000000	1842.023438	845.896973
15122.177734	4655.000000	1840.458984	829.048767
15122.177734	4655.000000	1838.896484	821.299316
15122.177734	4655.000000	1837.332031	845.367981
15122.177734	4655.000000	1835.767578	786.119141
15122.177734	4655.000000	1834.201172	788.983887
15122.177734	4655.000000	1832.636719	828.184509
15122.177734	4655.000000	1831.070312	790.168335
15122.177734	4655.000000	1829.503906	823.298523
15122.177734	4655.000000	1827.937500	801.943237
15122.177734	4655.000000	1826.371094	797.237427
15122.177734	4655.000000	1824.804688	881.769104
15122.177734	4655.000000	1823.238281	813.538025
15122.177734	4655.000000	1821.669922	778.595764
15122.177734	4655.000000	1820.101562	822.267151
15122.177734	4655.000000	1818.533203	805.471985
15122.177734	4655.000000	1816.964844	820.412415
15122.177734	4655.000000	1815.396484	803.624512
15122.177734	4655.000000	1813.826172	851.784607
15122.177734	4655.000000	1812.257812	783.659058
15122.177734	4655.000000	1810.687500	825.764587
15122.177734	4655.000000	1809.117188	819.554443
15122.177734	4655.000000	1807.546875	766.568115
15122.177734	4655.000000	1805.974609	807.141907
15122.177734	4655.000000	1804.404297	847.698547
15122.177734	4655.000000	1802.832031	817.360046
15122.177734	4655.000000	1801.259766	835.281555
15122.177734	4655.000000	1799.689453	826.062012
15122.177734	4655.000000	1798.115234	797.253967
15122.177734	4655.000000	1796.542969	795.580017
15122.177734	4655.000000	1794.970703	792.400269
15122.177734	4655.000000	1793.396484	837.418518
15122.177734	4655.000000	1791.822266	801.102844
15122.177734	4655.000000	1790.248047	769.318848
15122.177734	4655.000000	1788.673828	791.735413
15122.177734	4655.000000	1787.099609	809.627808
15122.177734	4655.000000	1785.523438	798.925842
15122.177734	4655.000000	1783.947266	857.423889
15122.177734	4655.000000	1782.373047	833.180786
15122.177734	4655.000000	1780.796875	781.882629
15122.177734	4655.000000	1779.218750	819.300903
15122.177734	4655.000000	1777.642578	832.655579
15122.177734	4655.000000	1776.064453	775.379028
15122.177734	4655.000000	1774.488281	827.798401
15122.177734	4655.000000	1772.910156	802.089661
15122.177734	4655.000000	1771.332031	801.920898
15122.177734	4655.000000	1769.753906	813.763428
15122.177734	4655.000000	1768.173828	813.592163
15122.177734	4655.000000	1766.595703	798.413147
15122.177734	4655.000000	1765.015625	774.237671
15122.177734	4655.000000	1763.435547	781.575378
15122.177734	4655.000000	1761.855469	815.906799
15122.177734	4655.000000	1760.275391	829.230591
15122.177734	4655.000000	1758.695312	844.047791
15122.177734	4655.000000	1757.113281	830.380005
15122.177734	4655.000000	1755.531250	815.219299
15122.177734	4655.000000	1753.949219	807.556213
15122.177734	4655.000000	1752.367188	795.402405
15122.177734	4655.000000	1750.785156	814.703674
15122.177734	4655.000000	1749.203125	857.953552
15122.177734	4655.000000	1747.619141	755.977539
15122.177734	4655.000000	1746.035156	784.254700
15122.177734	4655.000000	1744.451172	776.607361
15122.177734	4655.000000	1742.867188	792.899841
15122.177734	4655.000000	1741.283203	815.168213
15122.177734	4655.000000	1739.697266	819.482239
15122.177734	4655.000000	1738.113281	829.774780
15122.177734	4655.000000	1736.527344	759.345093
15122.177734	4655.000000	1734.941406	786.084839
15122.177734	4655.000000	1733.355469	827.754639
15122.177734	4655.000000	1731.769531	817.122864
15122.177734	4655.000000	1730.181641	802.014954
15122.177734	4655.000000	1728.595703	795.872559
15122.177734	4655.000000	1727.007812	804.661438
15122.177734	4655.000000	1725.419922	819.416809
15122.177734	4655.000000	1723.832031	832.673645
15122.177734	4655.000000	1722.242188	822.053833
15122.177734	4655.000000	1720.654297	878.561157
15122.177734	4655.000000	1719.064453	788.897217
15122.177734	4655.000000	1717.474609	818.549805
15122.177734	4655.000000	1715.884766	827.320374
15122.177734	4655.000000	1714.294922	797.338074
15122.177734	4655.000000	1712.705078	828.459839
15122.177734	4655.000000	1711.113281	817.856201
15122.177734	4655.000000	1709.521484	808.746399
15122.177734	4655.000000	1707.929688	775.814941
15122.177734	4655.000000	1706.337891	799.470764
15122.177734	4655.000000	1704.746094	775.485840
15122.177734	4655.000000	1703.154297	833.358826
15122.177734	4655.000000	1701.560547	837.645447
15122.177734	4655.000000	1699.966797	791.354858
15122.177734	4655.000000	1698.375000	770.366150
15122.177734	4655.000000	1696.779297	793.992615
15122.177734	4655.000000	1695.185547	822.068665
15122.177734	4655.000000	1693.591797	835.270264
15122.177734	4655.000000	1691.996094	793.486755
15122.177734	4655.000000	1690.400391	815.602356
15122.177734	4655.000000	1688.804688	862.958557
15122.177734	4655.000000	1687.208984	767.736206
15122.177734	4655.000000	1685.613281	798.750977
15122.177734	4655.000000	1684.015625	801.549805
15122.177734	4655.000000	1682.419922	822.155823
15122.177734	4655.000000	1680.822266	811.594910
15122.177734	4655.000000	1679.224609	845.540527
15122.177734	4655.000000	1677.626953	784.553894
15122.177734	4655.000000	1676.027344	797.731873
15122.177734	4655.000000	1674.429688	797.562012
15122.177734	4655.000000	1672.830078	804.802917
15122.177734	4655.000000	1671.230469	797.222351
15122.177734	4655.000000	1669.630859	831.127258
15122.177734	4655.000000	1668.031250	793.920288
15122.177734	4655.000000	1666.431641	801.155518
15122.177734	4655.000000	1664.830078	802.465271
15122.177734	4655.000000	1663.228516	787.491760
15122.177734	4655.000000	1661.626953	785.843872
15122.177734	4655.000000	1660.025391	787.155945
15122.177734	4655.000000	1658.423828	785.508728
15122.177734	4655.000000	1656.820312	792.736023
15122.177734	4655.000000	1655.218750	779.258850
15122.177734	4655.000000	1653.615234	796.832764
15122.177734	4655.000000	1652.011719	798.140747
15122.177734	4655.000000	1650.408203	818.658447
15122.177734	4655.000000	1648.802734	805.186951
15122.177734	4655.000000	1647.199219	834.556763
15122.177734	4655.000000	1645.593750	800.412659
15122.177734	4655.000000	1643.988281	752.994873
15122.177734	4655.000000	1642.382812	792.689880
15122.177734	4655.000000	1640.777344	792.520447
15122.177734	4655.000000	1639.171875	758.414185
15122.177734	4655.000000	1637.564453	747.925598
15122.177734	4655.000000	1635.958984	821.509827
15122.177734	4655.000000	1634.351562	775.622498
15122.177734	4655.000000	1632.744141	835.900879
15122.177734	4655.000000	1631.134766	860.778931
15122.177734	4655.000000	1629.527344	810.491577
15122.177734	4655.000000	1627.917969	776.432007
15122.177734	4655.000000	1626.308594	767.427856
15122.177734	4655.000000	1624.699219	805.553040
15122.177734	4655.000000	1623.089844	759.737366
15122.177734	4655.000000	1621.480469	790.487549
15122.177734	4655.000000	1619.869141	806.507141
15122.177734	4655.000000	1618.259766	776.906067
15122.177734	4655.000000	1616.648438	775.268433
15122.177734	4655.000000	1615.037109	785.397705
15122.177734	4655.000000	1613.425781	810.227234
15122.177734	4655.000000	1611.812500	827.695251
15122.177734	4655.000000	1610.201172	774.603638
15122.177734	4655.000000	1608.587891	824.401123
15122.177734	4655.000000	1606.974609	808.062988
15122.177734	4655.000000	1605.361328	826.985107
15122.177734	4655.000000	1603.748047	823.870422
15122.177734	4655.000000	1602.132812	851.590454
15122.177734	4655.000000	1600.519531	816.176941
15122.177734	4655.000000	1598.904297	798.390076
15122.177734	4655.000000	1597.289062	773.274231
15122.177734	4655.000000	1595.673828	814.184082
15122.177734	4655.000000	1594.056641	794.942200
15122.177734	4655.000000	1592.441406	825.565063
15122.177734	4655.000000	1590.824219	840.048096
15122.177734	4655.000000	1589.207031	766.580627
15122.177734	4655.000000	1587.589844	776.673706
15122.177734	4655.000000	1585.972656	785.297302
15122.177734	4655.000000	1584.355469	853.973572
15122.177734	4655.000000	1582.736328	802.533142
15122.177734	4655.000000	1581.117188	795.039612
15122.177734	4655.000000	1579.498047	781.693848
15122.177734	4655.000000	1577.878906	813.723267
15122.177734	4655.000000	1576.259766	804.768738
15122.177734	4655.000000	1574.638672	806.058289
15122.177734	4655.000000	1573.019531	798.571777
15122.177734	4655.000000	1571.398438	807.173340
15122.177734	4655.000000	1569.777344	815.771118
15122.177734	4655.000000	1568.156250	798.055603
15122.177734	4655.000000	1566.533203	783.270325
15122.177734	4655.000000	1564.912109	775.796387
15122.177734	4655.000000	1563.289062	815.067871
15122.177734	4655.000000	1561.666016	791.526001
15122.177734	4655.000000	1560.042969	772.374390
15122.177734	4655.000000	1558.419922	767.828491
15122.177734	4655.000000	1556.794922	795.392090
15122.177734	4655.000000	1555.171875	796.679504
15122.177734	4655.000000	1553.546875	739.614136
15122.177734	4655.000000	1551.921875	740.912964
15122.177734	4655.000000	1550.296875	756.792847
15122.177734	4655.000000	1548.671875	814.943848
15122.177734	4655.000000	1547.044922	788.531982
15122.177734	4655.000000	1545.417969	776.703735
15122.177734	4655.000000	1543.791016	775.078979
15122.177734	4655.000000	1542.164062	776.368042
15122.177734	4655.000000	1540.537109	847.558167
15122.177734	4655.000000	1538.910156	774.576416
15122.177734	4655.000000	1537.281250	764.219299
15122.177734	4655.000000	1535.652344	791.705505
15122.177734	4655.000000	1534.023438	781.348999
15122.177734	4655.000000	1532.394531	797.181763
15122.177734	4655.000000	1530.765625	808.644409
15122.177734	4655.000000	1529.134766	801.198975
15122.177734	4655.000000	1527.505859	750.143677
15122.177734	4655.000000	1525.875000	802.305542
15122.177734	4655.000000	1524.244141	790.506714
15122.177734	4655.000000	1522.613281	784.524170
15122.177734	4655.000000	1520.980469	787.259216
15122.177734	4655.000000	1519.349609	826.297852
15122.177734	4655.000000	1517.716797	827.570679
15122.177734	4655.000000	1516.083984	805.617798
15122.177734	4655.000000	1514.451172	786.576904
15122.177734	4655.000000	1512.816406	806.719421
15122.177734	4655.000000	1511.183594	810.896362
15122.177734	4655.000000	1509.548828	774.462830
15122.177734	4655.000000	1507.914062	822.144470
15122.177734	4655.000000	1506.279297	826.315125
15122.177734	4655.000000	1504.644531	837.730652
15122.177734	4655.000000	1503.009766	799.873657
15122.177734	4655.000000	1501.373047	767.827881
15122.177734	4655.000000	1499.736328	763.315918
15122.177734	4655.000000	1498.099609	768.942505
15122.177734	4655.000000	1496.462891	758.640991
15122.177734	4655.000000	1494.826172	778.740784
15122.177734	4655.000000	1493.187500	736.604004
15122.177734	4655.000000	1491.550781	749.465515
15122.177734	4655.000000	1489.912109	808.610291
15122.177734	4655.000000	1488.273438	801.203430
15122.177734	4655.000000	1486.634766	763.435791
15122.177734	4655.000000	1484.994141	767.606506
15122.177734	4655.000000	1483.355469	758.767883
15122.177734	4655.000000	1481.714844	822.180969
15122.177734	4655.000000	1480.074219	820.557434
15122.177734	4655.000000	1478.433594	766.938660
15122.177734	4655.000000	1476.791016	763.883728
15122.177734	4655.000000	1475.150391	756.498901
15122.177734	4655.000000	1473.507812	766.437866
15122.177734	4655.000000	1471.865234	761.941772
15122.177734	4655.000000	1470.222656	774.760559
15122.177734	4655.000000	1468.580078	770.264465
15122.177734	4655.000000	1466.937500	744.138306
15122.177734	4655.000000	1465.292969	743.976135
15122.177734	4655.000000	1463.648438	768.319458
15122.177734	4655.000000	1462.003906	765.269592
15122.177734	4655.000000	1460.359375	772.307068
15122.177734	4655.000000	1458.714844	764.935852
15122.177734	4655.000000	1457.068359	795.014099
15122.177734	4655.000000	1455.421875	823.639282
15122.177734	4655.000000	1453.777344	803.304932
15122.177734	4655.000000	1452.128906	754.193420
15122.177734	4655.000000	1450.482422	774.174561
15122.177734	4655.000000	1448.835938	774.005554
15122.177734	4655.000000	1447.187500	781.028381
15122.177734	4655.000000	1445.539062	773.667603
15122.177734	4655.000000	1443.890625	777.811768
15122.177734	4655.000000	1442.242188	774.767029
15122.177734	4655.000000	1440.593750	767.412231
15122.177734	4655.000000	1438.943359	777.302002
15122.177734	4655.000000	1437.294922	781.441528
15122.177734	4655.000000	1435.644531	768.345276
15122.177734	4655.000000	1433.992188	759.562195
15122.177734	4655.000000	1432.341797	792.413330
15122.177734	4655.000000	1430.691406	779.323059
15122.177734	4655.000000	1429.039062	789.196838
15122.177734	4655.000000	1427.386719	760.332397
15122.177734	4655.000000	1425.734375	804.628540
15122.177734	4655.000000	1424.082031	785.810913
15122.177734	4655.000000	1422.429688	741.195801
15122.177734	4655.000000	1420.775391	746.766907
15122.177734	4655.000000	1419.121094	776.696777
15122.177734	4655.000000	1417.466797	763.632263
15122.177734	4655.000000	1415.812500	772.059326
15122.177734	4655.000000	1414.158203	794.803467
15122.177734	4655.000000	1412.501953	771.721069
15122.177734	4655.000000	1410.847656	777.277710
15122.177734	4655.000000	1409.191406	775.676147
15122.177734	4655.000000	1407.535156	775.506104
15122.177734	4655.000000	1405.876953	759.600464
15122.177734	4655.000000	1404.220703	772.305603
15122.177734	4655.000000	1402.562500	764.986755
15122.177734	4655.000000	1400.904297	760.530212
15122.177734	4655.000000	1399.246094	797.523926
15122.177734	4655.000000	1397.587891	807.351501
15122.177734	4655.000000	1395.929688	765.744080
15122.177734	4655.000000	1394.269531	781.287415
15122.177734	4655.000000	1392.611328	765.407837
15122.177734	4655.000000	1390.951172	742.396790
15122.177734	4655.000000	1389.291016	779.345398
15122.177734	4655.000000	1387.628906	740.643555
15122.177734	4655.000000	1385.968750	733.347107
15122.177734	4655.000000	1384.306641	777.405334
15122.177734	4655.000000	1382.644531	778.660522
15122.177734	4655.000000	1380.982422	745.695862
15122.177734	4655.000000	1379.320312	789.722107
15122.177734	4655.000000	1377.656250	786.698059
15122.177734	4655.000000	1375.994141	776.550964
15122.177734	4655.000000	1374.330078	786.351990
15122.177734	4655.000000	1372.666016	767.663879
15122.177734	4655.000000	1371.001953	793.125549
15122.177734	4655.000000	1369.335938	792.950989
15122.177734	4655.000000	1367.671875	771.426941
15122.177734	4655.000000	1366.005859	788.332886
15122.177734	4655.000000	1364.339844	805.231323
15122.177734	4655.000000	1362.673828	807.898682
15122.177734	4655.000000	1361.007812	776.435730
15122.177734	4655.000000	1359.339844	892.846558
15122.177734	4655.000000	1357.673828	1057.534180
15122.177734	4655.000000	1356.005859	1125.514038
15122.177734	4655.000000	1354.337891	1000.236389
15122.177734	4655.000000	1352.667969	862.229553
15122.177734	4655.000000	1351.000000	773.989258
15122.177734	4655.000000	1349.330078	816.414062
15122.177734	4655.000000	1347.662109	776.486938
15122.177734	4655.000000	1345.992188	797.603943
15122.177734	4655.000000	1344.320312	767.630798
15122.177734	4655.000000	1342.650391	737.670837
15122.177734	4655.000000	1340.978516	778.638245
15122.177734	4655.000000	1339.308594	786.974182
15122.177734	4655.000000	1337.636719	785.382751
15122.177734	4655.000000	1335.964844	790.878662
15122.177734	4655.000000	1334.291016	726.937500
15122.177734	4655.000000	1332.619141	767.861755
15122.177734	4655.000000	1330.945312	742.196777
15122.177734	4655.000000	1329.271484	730.704041
15122.177734	4655.000000	1327.597656	750.363403
15122.177734	4655.000000	1325.923828	751.612976
15122.177734	4655.000000	1324.248047	744.371033
15122.177734	4655.000000	1322.574219	748.450928
15122.177734	4655.000000	1320.898438	769.503296
15122.177734	4655.000000	1319.222656	729.735046
15122.177734	4655.000000	1317.546875	753.609924
15122.177734	4655.000000	1315.869141	725.171326
15122.177734	4655.000000	1314.193359	705.224976
15122.177734	4655.000000	1312.515625	767.239258
15122.177734	4655.000000	1310.837891	760.006104
15122.177734	4655.000000	1309.160156	772.548828
15122.177734	4655.000000	1307.480469	783.673950
15122.177734	4655.000000	1305.802734	717.149841
15122.177734	4655.000000	1304.123047	736.750549
15122.177734	4655.000000	1302.443359	704.132263
15122.177734	4655.000000	1300.763672	743.477905
15122.177734	4655.000000	1299.083984	741.902588
15122.177734	4655.000000	1297.402344	716.355469
15122.177734	4655.000000	1295.720703	695.049072
15122.177734	4655.000000	1294.041016	769.599609
15122.177734	4655.000000	1292.357422	746.881531
15122.177734	4655.000000	1290.675781	752.351440
15122.177734	4655.000000	1288.994141	746.550110
15122.177734	4655.000000	1287.310547	746.384460
15122.177734	4655.000000	1285.626953	734.955078
15122.177734	4655.000000	1283.943359	709.454285
15122.177734	4655.000000	1282.259766	700.852722
15122.177734	4655.000000	1280.576172	727.430481
15122.177734	4655.000000	1278.890625	713.201782
15122.177734	4655.000000	1277.205078	753.828857
15122.177734	4655.000000	1275.519531	718.509277
15122.177734	4655.000000	1273.833984	739.436157
15122.177734	4655.000000	1272.148438	739.271790
15122.177734	4655.000000	1270.460938	718.030273
15122.177734	4655.000000	1268.773438	712.251282
15122.177734	4655.000000	1267.085938	737.374268
15122.177734	4655.000000	1265.398438	707.721863
15122.177734	4655.000000	1263.710938	734.238464
15122.177734	4655.000000	1262.021484	713.021301
15122.177734	4655.000000	1260.333984	764.783752
15122.177734	4655.000000	1258.644531	770.225342
15122.177734	4655.000000	1256.955078	706.934753
15122.177734	4655.000000	1255.263672	716.593689
15122.177734	4655.000000	1253.574219	758.494812
15122.177734	4655.000000	1251.882812	730.291626
15122.177734	4655.000000	1250.191406	699.298157
15122.177734	4655.000000	1248.500000	721.559753
15122.177734	4655.000000	1246.808594	718.597412
15122.177734	4655.000000	1245.115234	724.039124
15122.177734	4655.000000	1243.423828	733.678772
15122.177734	4655.000000	1241.730469	750.313293
15122.177734	4655.000000	1240.037109	730.552612
15122.177734	4655.000000	1238.343750	699.606934
15122.177734	4655.000000	1236.648438	737.221252
15122.177734	4655.000000	1234.955078	703.490601
15122.177734	4655.000000	1233.259766	771.849243
15122.177734	4655.000000	1231.564453	745.115662
15122.177734	4655.000000	1229.869141	719.791565
15122.177734	4655.000000	1228.171875	718.233521
15122.177734	4655.000000	1226.476562	733.440491
15122.177734	4655.000000	1224.779297	758.417603
15122.177734	4655.000000	1223.082031	752.662598
15122.177734	4655.000000	1221.384766	749.702271
15122.177734	4655.000000	1219.685547	760.700989
15122.177734	4655.000000	1217.988281	720.062378
15122.177734	4655.000000	1216.289062	683.627319
15122.177734	4655.000000	1214.589844	746.242554
15122.177734	4655.000000	1212.890625	730.735840
15122.177734	4655.000000	1211.191406	737.543579
15122.177734	4655.000000	1209.490234	720.651672
15122.177734	4655.000000	1207.789062	714.916077
15122.177734	4655.000000	1206.087891	684.103821
15122.177734	4655.000000	1204.386719	702.059387
15122.177734	4655.000000	1202.685547	693.546265
15122.177734	4655.000000	1200.984375	746.300415
15122.177734	4655.000000	1199.281250	722.468628
15122.177734	4655.000000	1197.578125	693.080566
15122.177734	4655.000000	1195.875000	673.445496
15122.177734	4655.000000	1194.171875	684.423462
15122.177734	4655.000000	1192.466797	699.568848
15122.177734	4655.000000	1190.761719	688.288269
15122.177734	4655.000000	1189.058594	706.206238
15122.177734	4655.000000	1187.351562	679.640625
15122.177734	4655.000000	1185.646484	648.918213
15122.177734	4655.000000	1183.941406	682.114319
15122.177734	4655.000000	1182.234375	680.572449
15122.177734	4655.000000	1180.527344	697.083130
15122.177734	4655.000000	1178.820312	724.692749
15122.177734	4655.000000	1177.113281	705.098328
15122.177734	4655.000000	1175.406250	677.186523
15122.177734	4655.000000	1173.697266	711.718689
15122.177734	4655.000000	1171.988281	642.206177
15122.177734	4655.000000	1170.279297	701.691895
15122.177734	4655.000000	1168.570312	658.554993
15122.177734	4655.000000	1166.859375	711.079590
15122.177734	4655.000000	1165.150391	705.376648
15122.177734	4655.000000	1163.439453	667.809753
15122.177734	4655.000000	1161.728516	644.111511
15122.177734	4655.000000	1160.017578	685.512939
15122.177734	4655.000000	1158.304688	671.513245
15122.177734	4655.000000	1156.593750	692.126038
15122.177734	4655.000000	1154.880859	669.827332
15122.177734	4655.000000	1153.167969	673.827576
15122.177734	4655.000000	1151.455078	659.842834
15122.177734	4655.000000	1149.740234	666.609375
15122.177734	4655.000000	1148.027344	709.322937
15122.177734	4655.000000	1146.312500	653.867920
15122.177734	4655.000000	1144.597656	648.192444
15122.177734	4655.000000	1142.882812	630.083618
15122.177734	4655.000000	1141.166016	650.663452
15122.177734	4655.000000	1139.451172	658.803772
15122.177734	4655.000000	1137.734375	636.562134
15122.177734	4655.000000	1136.017578	659.887512
15122.177734	4655.000000	1134.300781	694.243958
15122.177734	4655.000000	1132.583984	674.768982
15122.177734	4655.000000	1130.865234	675.996460
15122.177734	4655.000000	1129.146484	642.741516
15122.177734	4655.000000	1127.427734	668.796875
15122.177734	4655.000000	1125.708984	656.238159
15122.177734	4655.000000	1123.990234	683.656921
15122.177734	4655.000000	1122.269531	675.234558
15122.177734	4655.000000	1120.548828	657.171814
15122.177734	4655.000000	1118.828125	676.307251
15122.177734	4655.000000	1117.107422	632.087463
15122.177734	4655.000000	1115.386719	663.610840
15122.177734	4655.000000	1113.664062	660.708069
15122.177734	4655.000000	1111.943359	635.787903
15122.177734	4655.000000	1110.220703	652.154541
15122.177734	4655.000000	1108.496094	628.622986
15122.177734	4655.000000	1106.773438	660.111267
15122.177734	4655.000000	1105.050781	661.337036
15122.177734	4655.000000	1103.326172	659.812927
15122.177734	4655.000000	1101.601562	629.429199
15122.177734	4655.000000	1099.876953	652.644653
15122.177734	4655.000000	1098.150391	663.486511
15122.177734	4655.000000	1096.425781	659.216370
15122.177734	4655.000000	1094.699219	605.518005
15122.177734	4655.000000	1092.972656	632.835938
15122.177734	4655.000000	1091.246094	636.809998
15122.177734	4655.000000	1089.519531	659.992004
15122.177734	4655.000000	1087.791016	651.611694
15122.177734	4655.000000	1086.062500	661.064697
15122.177734	4655.000000	1084.333984	612.923279
15122.177734	4655.000000	1082.605469	655.281799
15122.177734	4655.000000	1080.876953	649.651062
15122.177734	4655.000000	1079.146484	626.209412
15122.177734	4655.000000	1077.417969	675.385742
15122.177734	4655.000000	1075.687500	638.252380
15122.177734	4655.000000	1073.955078	668.232971
15122.177734	4655.000000	1072.224609	650.284180
15122.177734	4655.000000	1070.494141	699.410278
15122.177734	4655.000000	1068.761719	626.726501
15122.177734	4655.000000	1067.029297	626.584351
15122.177734	4655.000000	1065.296875	660.636658
15122.177734	4655.000000	1063.562500	645.444580
15122.177734	4655.000000	1061.830078	639.829468
15122.177734	4655.000000	1060.095703	589.110901
15122.177734	4655.000000	1058.361328	638.172424
15122.177734	4655.000000	1056.626953	642.126221
15122.177734	4655.000000	1054.890625	620.125732
15122.177734	4655.000000	1053.156250	640.468933
15122.177734	4655.000000	1051.419922	604.825745
15122.177734	4655.000000	1049.683594	619.703125
15122.177734	4655.000000	1047.947266	629.115051
15122.177734	4655.000000	1046.210938	630.336365
15122.177734	4655.000000	1044.472656	643.833618
15122.177734	4655.000000	1042.734375	612.321106
15122.177734	4655.000000	1040.996094	617.635559
15122.177734	4655.000000	1039.257812	618.858215
15122.177734	4655.000000	1037.519531	650.062134
15122.177734	4655.000000	1035.779297	632.201660
15122.177734	4655.000000	1034.039062	640.230957
15122.177734	4655.000000	1032.298828	663.237244
15122.177734	4655.000000	1030.558594	633.131592
15122.177734	4655.000000	1028.818359	652.045105
15122.177734	4655.000000	1027.076172	635.565186
15122.177734	4655.000000	1025.333984	676.239685
15122.177734	4655.000000	1023.591797	681.526978
15122.177734	4655.000000	1021.849609	701.772034
15122.177734	4655.000000	1020.107422	671.698364
15122.177734	4655.000000	1018.363281	655.232422
15122.177734	4655.000000	1016.619141	646.928467
15122.177734	4655.000000	1014.875000	678.033020
15122.177734	4655.000000	1013.130859	672.444458
15122.177734	4655.000000	1011.384766	713.036011
15122.177734	4655.000000	1009.640625	665.348450
15122.177734	4655.000000	1007.894531	677.414490
15122.177734	4655.000000	1006.148438	685.403320
15122.177734	4655.000000	1004.402344	701.529907
15122.177734	4655.000000	1002.654297	701.369751
15122.177734	4655.000000	1000.906250	694.428101
15122.177734	4655.000000	999.160156	696.981506
15122.177734	4655.000000	997.410156	700.889343
15122.177734	4655.000000	995.662109	696.663086
15122.177734	4655.000000	993.914062	729.025452
15122.177734	4655.000000	992.164062	789.822876
15122.177734	4655.000000	990.414062	804.541199
15122.177734	4655.000000	988.664062	823.315186
15122.177734	4655.000000	986.914062	828.542236
15122.177734	4655.000000	985.162109	873.018799
15122.177734	4655.000000	983.410156	840.342102
15122.177734	4655.000000	981.660156	869.913635
15122.177734	4655.000000	979.906250	923.818115
15122.177734	4655.000000	978.154297	876.276917
15122.177734	4655.000000	976.402344	899.059814
15122.177734	4655.000000	974.648438	890.744019
15122.177734	4655.000000	972.894531	855.404907
15122.177734	4655.000000	971.140625	848.453796
15122.177734	4655.000000	969.384766	876.624756
15122.177734	4655.000000	967.630859	871.022217
15122.177734	4655.000000	965.875000	897.824890
15122.177734	4655.000000	964.119141	871.972839
15122.177734	4655.000000	962.363281	858.278015
15122.177734	4655.000000	960.607422	875.620605
15122.177734	4655.000000	958.849609	864.628845
15122.177734	4655.000000	957.091797	861.733398
15122.177734	4655.000000	955.333984	892.545593
15122.177734	4655.000000	953.576172	866.729797
15122.177734	4655.000000	951.816406	875.964355
15122.177734	4655.000000	950.058594	862.290039
15122.177734	4655.000000	948.298828	820.334473
15122.177734	4655.000000	946.539062	872.667786
15122.177734	4655.000000	944.779297	872.467407
15122.177734	4655.000000	943.017578	868.228760
15122.177734	4655.000000	941.257812	884.178650
15122.177734	4655.000000	939.496094	882.630005
15122.177734	4655.000000	937.734375	839.381958
15122.177734	4655.000000	935.970703	816.326477
15122.177734	4655.000000	934.208984	748.911560
15122.177734	4655.000000	932.445312	729.920044
15122.177734	4655.000000	930.681641	735.127869
15122.177734	4655.000000	928.917969	678.526855
15122.177734	4655.000000	927.154297	625.981750
15122.177734	4655.000000	925.388672	644.639648
15122.177734	4655.000000	923.625000	633.749817
15122.177734	4655.000000	921.859375	589.305359
15122.177734	4655.000000	920.091797	625.405579
15122.177734	4655.000000	918.326172	630.628662
15122.177734	4655.000000	916.560547	613.044495
15122.177734	4655.000000	914.792969	596.809509
15122.177734	4655.000000	913.025391	608.739563
15122.177734	4655.000000	911.257812	607.258728
15122.177734	4655.000000	909.488281	585.675293
15122.177734	4655.000000	907.720703	609.658630
15122.177734	4655.000000	905.951172	601.480469
15122.177734	4655.000000	904.181641	630.806152
15122.177734	4655.000000	902.410156	613.253906
15122.177734	4655.000000	900.640625	613.112427
15122.177734	4655.000000	898.869141	598.248962
15122.177734	4655.000000	897.097656	642.266724
15122.177734	4655.000000	895.326172	608.674805
15122.177734	4655.000000	893.554688	605.859436
15122.177734	4655.000000	891.783203	607.056641
15122.177734	4655.000000	890.009766	610.926941
15122.177734	4655.000000	888.236328	601.430237
15122.177734	4655.000000	886.462891	589.265442
15122.177734	4655.000000	884.689453	575.770325
15122.177734	4655.000000	882.914062	629.060669
15122.177734	4655.000000	881.138672	564.822021
15122.177734	4655.000000	879.363281	586.050903
15122.177734	4655.000000	877.587891	584.580688
15122.177734	4655.000000	875.812500	561.761536
15122.177734	4655.000000	874.035156	556.295410
15122.177734	4655.000000	872.257812	598.846191
15122.177734	4655.000000	870.480469	566.705383
15122.177734	4655.000000	868.703125	571.906677
15122.177734	4655.000000	866.925781	579.771118
15122.177734	4655.000000	865.146484	578.304382
15122.177734	4655.000000	863.367188	580.834839
15122.177734	4655.000000	861.587891	566.049622
15122.177734	4655.000000	859.808594	575.239502
15122.177734	4655.000000	858.027344	615.044128
15122.177734	4655.000000	856.248047	602.922974
15122.177734	4655.000000	854.466797	550.888000
15122.177734	4655.000000	852.685547	537.456848
15122.177734	4655.000000	850.902344	602.503723
15122.177734	4655.000000	849.121094	593.055908
15122.177734	4655.000000	847.337891	600.894836
15122.177734	4655.000000	845.554688	572.844238
15122.177734	4655.000000	843.771484	564.738525
15122.177734	4655.000000	841.986328	556.636475
15122.177734	4655.000000	840.203125	567.132690
15122.177734	4655.000000	838.417969	551.066589
15122.177734	4655.000000	836.632812	585.455200
15122.177734	4655.000000	834.847656	574.701172
15122.177734	4655.000000	833.060547	548.028748
15122.177734	4655.000000	831.273438	558.514526
15122.177734	4655.000000	829.488281	578.279663
15122.177734	4655.000000	827.699219	562.232971
15122.177734	4655.000000	825.912109	588.616516
15122.177734	4655.000000	824.125000	589.804993
15122.177734	4655.000000	822.335938	551.240051
15122.177734	4655.000000	820.546875	569.658813
15122.177734	4655.000000	818.757812	533.765320
15122.177734	4655.000000	816.966797	542.910339
15122.177734	4655.000000	815.177734	569.261230
15122.177734	4655.000000	813.386719	551.922485
15122.177734	4655.000000	811.595703	563.703186
15122.177734	4655.000000	809.804688	558.280151
15122.177734	4655.000000	808.011719	560.795349
15122.177734	4655.000000	806.220703	547.441467
15122.177734	4655.000000	804.427734	571.110168
15122.177734	4655.000000	802.634766	561.725098
15122.177734	4655.000000	800.839844	557.629944
15122.177734	4655.000000	799.046875	552.215576
15122.177734	4655.000000	797.251953	534.916626
15122.177734	4655.000000	795.457031	562.521790
15122.177734	4655.000000	793.662109	558.430054
15122.177734	4655.000000	791.867188	575.457886
15122.177734	4655.000000	790.070312	564.767212
15122.177734	4655.000000	788.273438	559.358398
15122.177734	4655.000000	786.476562	579.011780
15122.177734	4655.000000	784.679688	543.273682
15122.177734	4655.000000	782.882812	548.420105
15122.177734	4655.000000	781.083984	539.065918
15122.177734	4655.000000	779.285156	562.658569
15122.177734	4655.000000	777.486328	569.114014
15122.177734	4655.000000	775.687500	547.907654
15122.177734	4655.000000	773.886719	517.493652
15122.177734	4655.000000	772.085938	551.600830
15122.177734	4655.000000	770.285156	560.684937
15122.177734	4655.000000	768.484375	515.814758
15122.177734	4655.000000	766.683594	539.373901
15122.177734	4655.000000	764.880859	547.139099
15122.177734	4655.000000	763.078125	556.215576
15122.177734	4655.000000	761.275391	545.568359
15122.177734	4655.000000	759.472656	515.211365
15122.177734	4655.000000	757.669922	521.660706
15122.177734	4655.000000	755.865234	529.420715
15122.177734	4655.000000	754.060547	526.669922
15122.177734	4655.000000	752.255859	539.677307
15122.177734	4655.000000	750.451172	532.986938
15122.177734	4655.000000	748.644531	515.799866
15122.177734	4655.000000	746.837891	536.673523
15122.177734	4655.000000	745.031250	503.751343
15122.177734	4655.000000	743.224609	516.748596
15122.177734	4655.000000	741.417969	525.806030
15122.177734	4655.000000	739.609375	511.262421
15122.177734	4655.000000	737.800781	491.483093
15122.177734	4655.000000	735.992188	525.435852
15122.177734	4655.000000	734.183594	537.102539
15122.177734	4655.000000	732.373047	518.640625
15122.177734	4655.000000	730.564453	506.734283
15122.177734	4655.000000	728.753906	538.033203
15122.177734	4655.000000	726.943359	536.598022
15122.177734	4655.000000	725.130859	510.302521
15122.177734	4655.000000	723.320312	495.792786
15122.177734	4655.000000	721.507812	507.446899
15122.177734	4655.000000	719.695312	512.557739
15122.177734	4655.000000	717.882812	533.352966
15122.177734	4655.000000	716.068359	558.059143
15122.177734	4655.000000	714.253906	500.436432
15122.177734	4655.000000	712.441406	502.931274
15122.177734	4655.000000	710.625000	517.178955
15122.177734	4655.000000	708.810547	476.580475
15122.177734	4655.000000	706.996094	490.827545
15122.177734	4655.000000	705.179688	536.389893
15122.177734	4655.000000	703.363281	515.387085
15122.177734	4655.000000	701.546875	512.656677
15122.177734	4655.000000	699.728516	528.185791
15122.177734	4655.000000	697.910156	515.022705
15122.177734	4655.000000	696.093750	503.169373
15122.177734	4655.000000	694.273438	505.657166
15122.177734	4655.000000	692.455078	509.446686
15122.177734	4655.000000	690.636719	530.168518
15122.177734	4655.000000	688.816406	506.601654
15122.177734	4655.000000	686.996094	531.220276
15122.177734	4655.000000	685.175781	507.664215
15122.177734	4655.000000	683.353516	516.654114
15122.177734	4655.000000	681.533203	563.371277
15122.177734	4655.000000	679.710938	530.718628
15122.177734	4655.000000	677.888672	533.194214
15122.177734	4655.000000	676.064453	503.164368
15122.177734	4655.000000	674.242188	496.546112
15122.177734	4655.000000	672.417969	532.816162
15122.177734	4655.000000	670.593750	523.595459
15122.177734	4655.000000	668.769531	544.254639
15122.177734	4655.000000	666.945312	527.243652
15122.177734	4655.000000	665.119141	547.892090
15122.177734	4655.000000	663.292969	510.119965
15122.177734	4655.000000	661.466797	500.915253
15122.177734	4655.000000	659.640625	531.934265
15122.177734	4655.000000	657.812500	540.887939
15122.177734	4655.000000	655.986328	508.340179
15122.177734	4655.000000	654.158203	538.038757
15122.177734	4655.000000	652.328125	537.911255
15122.177734	4655.000000	650.500000	513.162354
15122.177734	4655.000000	648.669922	514.336243
15122.177734	4655.000000	646.841797	512.919067
15122.177734	4655.000000	645.011719	497.258087
15122.177734	4655.000000	643.179688	508.791870
15122.177734	4655.000000	641.349609	509.965485
15122.177734	4655.000000	639.517578	482.670013
15122.177734	4655.000000	637.685547	511.017151
15122.177734	4655.000000	635.853516	505.722198
15122.177734	4655.000000	634.019531	510.774506
15122.177734	4655.000000	632.187500	509.360413
15122.177734	4655.000000	630.353516	487.267151
15122.177734	4655.000000	628.519531	547.883789
15122.177734	4655.000000	626.685547	511.581146
15122.177734	4655.000000	624.849609	529.541443
15122.177734	4655.000000	623.013672	515.211731
15122.177734	4655.000000	621.177734	511.216339
15122.177734	4655.000000	619.341797	534.326294
15122.177734	4655.000000	617.505859	510.973145
15122.177734	4655.000000	615.667969	532.782043
15122.177734	4655.000000	613.830078	533.944946
15122.177734	4655.000000	611.992188	505.450714
15122.177734	4655.000000	610.154297	509.197693
15122.177734	4655.000000	608.314453	493.610809
15122.177734	4655.000000	606.476562	519.263123
15122.177734	4655.000000	604.636719	532.021240
15122.177734	4655.000000	602.796875	517.727783
15122.177734	4655.000000	600.955078	502.153503
15122.177734	4655.000000	599.113281	475.001190
15122.177734	4655.000000	597.273438	490.331421
15122.177734	4655.000000	595.431641	514.660889
15122.177734	4655.000000	593.587891	501.674622
15122.177734	4655.000000	591.746094	516.987366
15122.177734	4655.000000	589.902344	515.578247
15122.177734	4655.000000	588.058594	492.317535
15122.177734	4655.000000	586.214844	501.195801
15122.177734	4655.000000	584.369141	502.360901
15122.177734	4655.000000	582.525391	491.964874
15122.177734	4655.000000	580.679688	487.994751
15122.177734	4655.000000	578.832031	487.878113
15122.177734	4655.000000	576.986328	469.791351
15122.177734	4655.000000	575.140625	470.962280
15122.177734	4655.000000	573.292969	474.698578
15122.177734	4655.000000	571.445312	500.238281
15122.177734	4655.000000	569.595703	488.577393
15122.177734	4655.000000	567.748047	467.947693
15122.177734	4655.000000	565.898438	498.597504
15122.177734	4655.000000	564.048828	479.256622
15122.177734	4655.000000	562.199219	485.547485
15122.177734	4655.000000	560.349609	521.294189
15122.177734	4655.000000	558.498047	527.571899
15122.177734	4655.000000	556.646484	503.121521
15122.177734	4655.000000	554.794922	506.840668
15122.177734	4655.000000	552.943359	495.202820
15122.177734	4655.000000	551.089844	523.228394
15122.177734	4655.000000	549.238281	505.197205
15122.177734	4655.000000	547.384766	544.714905
15122.177734	4655.000000	545.529297	544.584167
15122.177734	4655.000000	543.675781	589.185608
15122.177734	4655.000000	541.820312	612.043701
15122.177734	4655.000000	539.964844	625.948669
15122.177734	4655.000000	538.109375	667.943970
15122.177734	4655.000000	536.253906	683.105530
15122.177734	4655.000000	534.396484	725.066772
15122.177734	4655.000000	532.541016	814.227905
15122.177734	4655.000000	530.683594	949.278931
15122.177734	4655.000000	528.824219	1130.186768
15122.177734	4655.000000	526.966797	1504.852905
15122.177734	4655.000000	525.107422	2488.784912
15122.177734	4655.000000	523.248047	5268.275391
15122.177734	4655.000000	521.388672	9915.942383
15122.177734	4655.000000	519.529297	11200.368164
15122.177734	4655.000000	517.667969	7569.988281
15122.177734	4655.000000	515.806641	3524.933838
15122.177734	4655.000000	513.945312	1842.250977
15122.177734	4655.000000	512.083984	1162.107788
15122.177734	4655.000000	510.220703	912.410217
15122.177734	4655.000000	508.357422	751.889099
15122.177734	4655.000000	506.494141	653.769592
15122.177734	4655.000000	504.630859	612.920166
15122.177734	4655.000000	502.765625	605.144470
15122.177734	4655.000000	500.902344	557.971313
15122.177734	4655.000000	499.037109	528.610596
15122.177734	4655.000000	497.171875	547.538940
15122.177734	4655.000000	495.304688	520.734985
15122.177734	4655.000000	493.439453	518.069702
15122.177734	4655.000000	491.572266	502.710907
15122.177734	4655.000000	489.705078	508.935303
15122.177734	4655.000000	487.835938	507.543457
15122.177734	4655.000000	485.968750	482.049774
15122.177734	4655.000000	484.099609	466.714294
15122.177734	4655.000000	482.230469	460.261780
15122.177734	4655.000000	480.361328	461.418091
15122.177734	4655.000000	478.490234	463.841125
15122.177734	4655.000000	476.621094	462.461884
15122.177734	4655.000000	474.750000	453.483002
15122.177734	4655.000000	472.876953	444.508392
15122.177734	4655.000000	471.005859	425.409271
15122.177734	4655.000000	469.132812	432.901001
15122.177734	4655.000000	467.261719	454.309418
15122.177734	4655.000000	465.386719	416.243958
15122.177734	4655.000000	463.513672	462.943390
15122.177734	4655.000000	461.640625	431.217010
15122.177734	4655.000000	459.765625	439.962280
15122.177734	4655.000000	457.890625	433.535828
15122.177734	4655.000000	456.013672	434.694305
15122.177734	4655.000000	454.138672	444.695557
15122.177734	4655.000000	452.261719	442.061584
15122.177734	4655.000000	450.384766	474.785187
15122.177734	4655.000000	448.507812	470.882629
15122.177734	4655.000000	446.630859	445.526031
15122.177734	4655.000000	444.751953	456.774048
15122.177734	4655.000000	442.873047	441.525085
15122.177734	4655.000000	440.994141	452.768524
15122.177734	4655.000000	439.113281	451.397583
15122.177734	4655.000000	437.234375	462.633057
15122.177734	4655.000000	435.353516	494.027405
15122.177734	4655.000000	433.472656	480.047577
15122.177734	4655.000000	431.591797	477.411469
15122.177734	4655.000000	429.708984	468.479797
15122.177734	4655.000000	427.826172	475.920044
15122.177734	4655.000000	425.943359	459.440521
15122.177734	4655.000000	424.060547	441.710541
15122.177734	4655.000000	422.177734	447.893585
15122.177734	4655.000000	420.292969	459.104858
15122.177734	4655.000000	418.408203	457.735443
15122.177734	4655.000000	416.523438	437.508545
15122.177734	4655.000000	414.636719	453.741577
15122.177734	4655.000000	412.751953	432.268799
15122.177734	4655.000000	410.865234	458.545410
15122.177734	4655.000000	408.978516	450.897614
15122.177734	4655.000000	407.089844	428.185425
15122.177734	4655.000000	405.203125	463.231232
15122.177734	4655.000000	403.314453	454.332672
15122.177734	4655.000000	401.425781	439.164642
15122.177734	4655.000000	399.535156	436.548431
15122.177734	4655.000000	397.646484	470.303619
15122.177734	4655.000000	395.755859	450.127289
15122.177734	4655.000000	393.865234	411.157806
15122.177734	4655.000000	391.974609	458.679779
15122.177734	4655.000000	390.082031	444.785492
15122.177734	4655.000000	388.191406	454.697540
15122.177734	4655.000000	386.298828	463.352417
15122.177734	4655.000000	384.404297	440.703033
15122.177734	4655.000000	382.511719	464.377258
15122.177734	4655.000000	380.617188	464.263519
15122.177734	4655.000000	378.722656	440.379333
15122.177734	4655.000000	376.828125	437.769897
15122.177734	4655.000000	374.933594	452.668182
15122.177734	4655.000000	373.037109	437.555328
15122.177734	4655.000000	371.140625	446.196991
15122.177734	4655.000000	369.244141	413.599396
15122.177734	4655.000000	367.347656	444.728882
15122.177734	4655.000000	365.449219	449.615479
15122.177734	4655.000000	363.552734	463.239990
15122.177734	4655.000000	361.652344	425.676727
15122.177734	4655.000000	359.753906	435.556274
15122.177734	4655.000000	357.855469	502.825409
15122.177734	4655.000000	355.955078	465.279907
15122.177734	4655.000000	354.054688	448.953339
15122.177734	4655.000000	352.154297	451.336578
15122.177734	4655.000000	350.251953	440.007263
15122.177734	4655.000000	348.349609	459.837830
15122.177734	4655.000000	346.447266	453.495392
15122.177734	4655.000000	344.544922	440.928192
15122.177734	4655.000000	342.642578	413.424103
15122.177734	4655.000000	340.738281	448.180847
15122.177734	4655.000000	338.833984	460.516876
15122.177734	4655.000000	336.929688	462.892120
15122.177734	4655.000000	335.025391	459.046021
15122.177734	4655.000000	333.119141	471.370087
15122.177734	4655.000000	331.212891	463.793427
15122.177734	4655.000000	329.306641	488.541229
15122.177734	4655.000000	327.398438	457.350708
15122.177734	4655.000000	325.492188	464.692871
15122.177734	4655.000000	323.583984	474.515717
15122.177734	4655.000000	321.675781	460.737915
15122.177734	4655.000000	319.767578	469.315186
15122.177734	4655.000000	317.857422	460.510437
15122.177734	4655.000000	315.947266	485.215912
15122.177734	4655.000000	314.037109	462.764252
15122.177734	4655.000000	312.126953	501.100677
15122.177734	4655.000000	310.214844	487.336365
15122.177734	4655.000000	308.302734	502.092712
15122.177734	4655.000000	306.390625	506.926239
15122.177734	4655.000000	304.478516	542.735352
15122.177734	4655.000000	302.566406	527.735291
15122.177734	4655.000000	300.652344	552.374878
15122.177734	4655.000000	298.738281	541.094299
15122.177734	4655.000000	296.824219	523.629761
15122.177734	4655.000000	294.908203	530.925598
15122.177734	4655.000000	292.992188	509.760284
15122.177734	4655.000000	291.076172	477.472595
15122.177734	4655.000000	289.160156	499.614258
15122.177734	4655.000000	287.244141	467.344971
15122.177734	4655.000000	285.326172	459.812714
15122.177734	4655.000000	283.408203	494.299622
15122.177734	4655.000000	281.490234	462.055481
15122.177734	4655.000000	279.570312	453.294830
15122.177734	4655.000000	277.652344	451.947479
15122.177734	4655.000000	275.732422	470.353058
15122.177734	4655.000000	273.812500	455.425659
15122.177734	4655.000000	271.890625	450.376862
15122.177734	4655.000000	269.970703	455.199341
15122.177734	4655.000000	268.048828	420.553894
15122.177734	4655.000000	266.126953	461.137939
15122.177734	4655.000000	264.203125	427.740814
15122.177734	4655.000000	262.281250	442.422913
15122.177734	4655.000000	260.357422	434.920410
15122.177734	4655.000000	258.433594	460.679138
15122.177734	4655.000000	256.507812	450.712799
15122.177734	4655.000000	254.583984	478.916992
15122.177734	4655.000000	252.658203	435.718201
15122.177734	4655.000000	250.732422	435.609619
15122.177734	4655.000000	248.804688	442.882416
15122.177734	4655.000000	246.878906	419.403473
15122.177734	4655.000000	244.951172	414.380402
15122.177734	4655.000000	243.023438	397.066711
15122.177734	4655.000000	241.093750	426.463684
15122.177734	4655.000000	239.166016	426.357239
15122.177734	4655.000000	237.236328	439.763092
15122.177734	4655.000000	235.306641	435.969025
15122.177734	4655.000000	233.376953	457.960052
15122.177734	4655.000000	231.445312	438.206146
15122.177734	4655.000000	229.513672	417.234894
15122.177734	4655.000000	227.582031	441.667664
15122.177734	4655.000000	225.650391	408.440430
15122.177734	4655.000000	223.716797	371.551056
15122.177734	4655.000000	221.783203	388.621155
15122.177734	4655.000000	219.849609	365.237000
15122.177734	4655.000000	217.916016	389.651978
15122.177734	4655.000000	215.982422	382.204315
15122.177734	4655.000000	214.046875	357.614441
15122.177734	4655.000000	212.111328	368.544464
15122.177734	4655.000000	210.173828	367.227997
15122.177734	4655.000000	208.238281	367.135956
15122.177734	4655.000000	206.300781	375.608246
15122.177734	4655.000000	204.363281	346.157898
15122.177734	4655.000000	202.425781	364.414062
15122.177734	4655.000000	200.486328	380.215881
15122.177734	4655.000000	198.546875	365.453400
15122.177734	4655.000000	196.607422	360.473877
15122.177734	4655.000000	194.667969	382.372833
15122.177734	4655.000000	192.728516	385.940765
15122.177734	4655.000000	190.787109	384.622742
15122.177734	4655.000000	188.845703	347.904541
15122.177734	4655.000000	186.902344	386.870209
15122.177734	4655.000000	184.960938	366.031158
15122.177734	4655.000000	183.017578	329.345154
15122.177734	4655.000000	181.074219	354.871582
15122.177734	4655.000000	179.130859	375.508362
15122.177734	4655.000000	177.185547	368.100555
15122.177734	4655.000000	175.240234	359.477875
15122.177734	4655.000000	173.294922	371.569946
15122.177734	4655.000000	171.349609	354.424927
15122.177734	4655.000000	169.404297	347.029694
15122.177734	4655.000000	167.457031	366.419678
15122.177734	4655.000000	165.509766	356.590973
15122.177734	4655.000000	163.560547	366.234833
15122.177734	4655.000000	161.613281	367.358856
15122.177734	4655.000000	159.664062	338.079407
15122.177734	4655.000000	157.714844	347.720490
15122.177734	4655.000000	155.765625	365.865173