599.853516,	20.717813
598.023438,	18.128086
596.191406,	18.123978
594.361328,	19.414145
592.529297,	21.997707
590.697266,	18.11165
588.865234,	23.281126
587.033203,	18.103434
585.199219,	15.513708
583.365234,	18.095219
581.53125,	20.675554
579.697266,	25.838575
577.861328,	21.957802
576.027344,	18.078789
574.191406,	19.36573
572.355469,	19.361332
570.517578,	19.356932
568.681641,	14.191856
566.84375,	16.768381
565.005859,	14.185405
563.167969,	20.628624
561.330078,	21.912928
559.490234,	19.33054
557.650391,	23.19137
555.810547,	19.321743
553.970703,	20.605169
552.128906,	16.737888
550.289062,	16.734077
548.447266,	24.451929
546.605469,	24.446362
544.761719,	29.586222
542.919922,	30.865545
541.076172,	25.715427
539.232422,	20.567654
537.388672,	30.844448
535.544922,	28.267632
533.699219,	32.114983
531.853516,	38.52919
530.007812,	46.224483
528.162109,	70.60463
526.316406,	157.861588
524.46875,	540.199707
522.621094,	592.672913
520.773438,	175.709198
518.923828,	75.653107
517.076172,	43.58675
515.226562,	25.633408
513.376953,	23.064796
511.527344,	24.340611
509.677734,	25.615841
507.826172,	16.64649
505.974609,	16.642685
504.123047,	15.358966
502.271484,	26.872044
500.417969,	23.027912
498.566406,	21.743608
496.712891,	20.45989
494.857422,	15.341406
493.003906,	15.337894
491.150391,	16.612247
489.294922,	19.163589
487.439453,	16.604641
485.582031,	14.046863
483.726562,	26.810595
481.869141,	11.487622
480.011719,	24.24609
478.154297,	22.964714
476.296875,	16.581825
474.4375,	15.302791
472.580078,	14.024342
470.720703,	19.119715
468.861328,	16.566618
467,	22.933132
465.138672,	21.654099
463.279297,	15.281738
461.417969,	16.551416
459.554688,	12.728935
457.693359,	20.36162
455.830078,	16.540016
453.966797,	17.808233
452.103516,	15.260694
450.238281,	15.257187
448.375,	15.25368
446.509766,	12.708478
444.644531,	12.705556
442.779297,	20.324215
440.912109,	12.699714
439.046875,	11.427113
437.179688,	16.502031
435.310547,	16.498236
433.443359,	7.612817
431.576172,	16.490641
429.707031,	13.950407
427.837891,	26.626463
425.966797,	15.211617
424.097656,	16.475456
422.226562,	24.073965
420.355469,	19.001383
418.484375,	17.730537
416.613281,	10.1294
414.740234,	15.190598
412.869141,	12.655912
410.996094,	20.244789
409.121094,	16.445097
407.248047,	15.176588
405.373047,	17.701933
403.498047,	17.697849
401.623047,	32.859848
399.748047,	30.325163
397.871094,	18.948851
395.994141,	20.207439
394.117188,	8.838713
392.240234,	15.14858
390.363281,	16.407169
388.484375,	21.450571
386.605469,	18.9226
384.726562,	23.963085
382.847656,	16.392004
380.966797,	20.170109
379.085938,	15.124083
377.205078,	32.761265
375.324219,	15.117085
373.443359,	10.075725
371.560547,	12.591741
369.677734,	12.588826
367.794922,	23.913231
365.912109,	15.099596
364.027344,	26.418173
362.142578,	15.092602
360.257812,	17.603956
358.373047,	13.828475
356.486328,	5.027371
354.601562,	13.822064
352.714844,	23.86894
350.828125,	18.839531
348.939453,	17.579483
347.052734,	20.086178
345.164062,	12.550949
343.275391,	11.293233
341.386719,	11.290611
339.496094,	16.304876
337.607422,	16.30109
335.716797,	10.029111
333.824219,	10.026781
331.933594,	3.75917
330.041016,	15.033185
328.150391,	10.019794
326.257812,	13.774015
324.363281,	17.526491
322.470703,	12.516011
320.576172,	7.507861
318.681641,	15.012229
316.787109,	18.760921
314.890625,	13.754808
312.996094,	18.752192
311.099609,	17.497972
309.203125,	11.246078
307.306641,	12.492733
305.408203,	13.738807
303.509766,	6.243458
301.611328,	12.484007
299.712891,	8.736769
297.814453,	13.726009
295.914062,	13.722811
294.013672,	9.9779
292.113281,	9.975574
290.210938,	8.726592
288.310547,	9.970922
286.408203,	17.445044
284.505859,	8.720487
282.603516,	9.963944
280.699219,	14.94243
278.796875,	9.959294
276.892578,	13.690833
274.986328,	7.465983
273.082031,	12.440399
271.175781,	9.949995
269.271484,	8.704212
267.363281,	18.647524
265.457031,	47.229355
263.550781,	45.975727
261.642578,	45.964981
259.734375,	34.776176
257.826172,	21.109169
255.916016,	22.345657
254.005859,	76.950371
252.097656,	364.808289
250.185547,	89.319901
248.275391,	39.688442
246.363281,	17.359629
244.453125,	17.355564
242.541016,	37.181786
240.626953,	28.499357
238.714844,	22.29862
236.800781,	8.669654
234.886719,	8.667622
232.972656,	13.617356
231.056641,	13.614163
229.142578,	9.898889
227.226562,	16.081921
225.310547,	23.498833
223.392578,	21.02034
221.476562,	24.724009
219.558594,	18.538654
217.640625,	16.063063
215.722656,	8.647311
213.802734,	11.115361
211.882812,	9.878
209.962891,	12.344601
208.042969,	7.40502
206.123047,	7.40328
204.201172,	11.10231
202.279297,	13.566301
200.357422,	11.097092
198.435547,	11.094482
196.511719,	7.394582
194.587891,	4.928562
192.664062,	11.086655
190.740234,	13.547168
188.814453,	12.312709
186.890625,	12.309811
184.964844,	9.845531
183.037109,	11.073613
181.111328,	14.76134
179.183594,	9.838575
177.255859,	9.836258
175.328125,	8.604697
173.400391,	9.831622
171.470703,	6.143315
169.541016,	9.826987
167.611328,	17.193172
165.681641,	9.822353
163.751953,	8.592532
161.820312,	6.136075
159.888672,	4.907701
157.955078,	14.719629
156.023438,	9.81077
154.089844,	11.034511
152.15625,	12.257672
150.222656,	6.127388
148.289062,	3.675565
146.353516,	9.79919
144.417969,	8.572265
142.482422,	14.691838
140.546875,	15.912395
138.609375,	13.461151
136.671875,	9.787613
134.734375,	12.231623
132.796875,	7.337237
130.859375,	8.558085
128.919922,	7.333766
126.980469,	10.998045
125.041016,	4.886863
123.099609,	4.885705
121.158203,	7.326823
119.216797,	3.662544
117.275391,	9.76447
115.333984,	8.541886
113.390625,	6.099902
111.447266,	7.318147
109.503906,	6.09701
107.560547,	10.972015
105.615234,	4.875295
103.671875,	7.311208
101.724609,	2.436491
99.779297,	2.435913
