599.443359,	32.375977
597.613281,	42.73629
595.783203,	34.958149
593.951172,	41.422512
592.121094,	32.354019
590.289062,	28.465096
588.457031,	38.807255
586.623047,	36.21191
584.791016,	40.08268
582.957031,	45.244396
581.123047,	31.017704
579.289062,	32.302792
577.455078,	37.462749
575.619141,	43.911896
573.785156,	34.863308
571.949219,	28.400703
570.111328,	40.010101
568.275391,	38.710674
566.4375,	29.671455
564.601562,	30.954496
562.763672,	28.368519
560.923828,	39.964756
559.085938,	37.377899
557.246094,	25.772013
555.40625,	30.919395
553.566406,	41.216503
551.726562,	43.782589
549.884766,	33.473202
548.044922,	25.742767
546.203125,	45.039608
544.361328,	47.602482
542.517578,	50.164185
540.675781,	42.43697
538.832031,	46.284355
536.988281,	50.129982
535.142578,	61.68441
533.298828,	60.385578
531.453125,	82.208466
529.607422,	102.737198
527.761719,	210.563324
525.916016,	530.139404
524.068359,	1655.506348
522.222656,	1103.419678
520.375,	348.909058
518.527344,	134.658478
516.677734,	84.623192
514.830078,	67.939507
512.980469,	46.13707
511.130859,	39.720089
509.279297,	39.711033
507.429688,	34.579144
505.578125,	40.973343
503.726562,	44.804375
501.875,	39.67482
500.023438,	30.708982
498.169922,	28.143476
496.318359,	33.25288
494.464844,	33.245289
492.609375,	34.516071
490.755859,	28.117785
488.900391,	28.111362
487.044922,	26.827442
485.189453,	31.930136
483.333984,	29.369011
481.478516,	24.255812
479.621094,	30.631916
477.763672,	29.348875
475.90625,	30.61791
474.046875,	26.784544
472.189453,	29.328743
470.330078,	25.497419
468.470703,	33.139061
466.611328,	29.308613
464.75,	24.205921
462.890625,	17.831858
461.029297,	25.468248
459.166016,	21.643053
457.304688,	31.82073
455.443359,	22.905676
453.580078,	25.44492
451.716797,	26.711042
449.853516,	21.618267
447.988281,	19.070568
446.125,	31.776993
444.259766,	33.040493
442.394531,	24.139437
440.527344,	30.484926
438.662109,	30.47793
436.794922,	27.93169
434.927734,	29.194611
433.060547,	34.264065
431.191406,	36.793694
429.324219,	31.711418
427.455078,	32.972298
425.585938,	35.500473
423.716797,	22.816488
421.845703,	26.613117
419.974609,	25.34
418.103516,	31.667719
416.232422,	31.660437
414.361328,	27.854778
412.488281,	20.253361
410.615234,	20.248701
408.742188,	34.161819
406.869141,	27.829151
404.996094,	22.764065
403.121094,	27.816341
401.246094,	22.753584
399.371094,	22.748344
397.494141,	24.006611
395.619141,	24.00108
393.742188,	18.943855
391.865234,	25.252653
389.988281,	27.771515
388.109375,	20.19281
386.232422,	23.973433
384.353516,	23.967905
382.472656,	22.701199
380.59375,	25.217735
378.712891,	22.690725
376.833984,	25.206099
374.953125,	13.860154
373.070312,	20.155571
371.189453,	22.669783
369.306641,	17.627981
367.423828,	22.659313
365.541016,	21.395517
363.658203,	23.907112
361.773438,	16.353718
359.888672,	21.38069
358.003906,	22.633144
356.119141,	21.370804
354.234375,	30.16357
352.347656,	18.847872
350.460938,	16.331043
348.574219,	25.11887
346.685547,	27.624363
344.798828,	17.575071
342.910156,	15.06086
341.021484,	23.840841
339.132812,	23.83532
337.242188,	21.3214
335.351562,	25.07819
333.460938,	25.07238
331.570312,	20.053255
329.679688,	21.301645
327.787109,	17.538465
325.894531,	22.544228
324.001953,	23.791168
322.109375,	16.274391
320.214844,	26.283304
318.322266,	26.277206
316.427734,	23.769098
314.533203,	23.763582
312.636719,	13.75467
310.740234,	20.002148
308.845703,	27.496569
306.947266,	22.491968
305.050781,	26.234533
303.154297,	18.7346
301.255859,	18.730246
299.357422,	17.477501
297.458984,	26.210157
295.558594,	22.460627
293.658203,	22.455404
291.759766,	21.20295
289.857422,	26.185787
287.957031,	26.179695
286.056641,	22.434517
284.154297,	19.937153
282.251953,	27.407204
280.347656,	17.436888
278.445312,	19.923231
276.541016,	22.408417
274.636719,	19.913952
272.732422,	23.642309
270.828125,	21.148716
268.921875,	17.412531
267.015625,	24.869247
265.109375,	16.161242
263.203125,	14.914592
261.294922,	18.638891
259.386719,	18.634544
257.478516,	14.904158
255.570312,	17.384127
253.662109,	19.862938
251.751953,	17.376015
249.841797,	14.890249
247.931641,	16.127337
246.021484,	23.56522
244.109375,	16.119806
242.197266,	24.793907
240.285156,	26.027519
238.373047,	13.630277
236.458984,	13.627091
234.546875,	24.770739
232.632812,	19.811956
230.71875,	19.807323
228.802734,	21.040359
226.886719,	17.323301
224.972656,	24.741783
223.054688,	16.078396
221.138672,	14.838122
219.222656,	19.779531
217.304688,	24.718626
215.386719,	24.712839
213.466797,	19.76564
211.548828,	16.05582
209.628906,	11.112964
207.708984,	13.579329
205.789062,	20.981316
203.869141,	20.976398
201.947266,	14.803397
200.025391,	19.733234
198.103516,	13.563417
196.181641,	24.654974
194.257812,	20.951811
192.333984,	13.553872
190.410156,	13.550692
188.486328,	9.852735
186.5625,	17.238237
184.636719,	17.23419
182.710938,	20.922316
180.785156,	19.686966
178.857422,	20.912487
176.931641,	9.838858
175.003906,	23.361794
173.076172,	18.439186
171.146484,	14.747881
169.21875,	8.600907
167.289062,	15.969357
165.359375,	17.193724
163.429688,	11.050508
161.498047,	13.502997
159.566406,	15.954331
157.634766,	15.950576
155.703125,	18.400177
153.771484,	18.395845
151.837891,	14.713209
149.904297,	19.612991
147.970703,	12.255232
146.037109,	8.57664
144.101562,	15.924293
142.166016,	6.123284
140.230469,	13.468049
138.294922,	19.58527
136.357422,	15.909278
134.419922,	13.458521
132.482422,	15.901772
130.544922,	19.566793
128.607422,	18.339539
126.667969,	13.44582
124.728516,	15.886763
122.789062,	15.883011
120.847656,	13.436296
118.908203,	12.211929
116.966797,	13.429949
115.025391,	13.426775
113.082031,	15.864256
111.140625,	9.760311
109.197266,	10.977754
107.253906,	10.975158
105.310547,	10.972562
103.365234,	7.313311
101.419922,	3.65579
99.474609,	3.654925
