3199.290039,	888.006042
3197.993164,	875.21582
3196.695312,	862.260254
3195.398438,	893.144897
3194.100586,	880.190735
3192.801758,	911.059998
3191.503906,	868.900574
3190.205078,	815.806763
3188.90625,	899.587463
3187.607422,	789.952576
3186.307617,	862.761841
3185.008789,	893.598694
3183.708984,	838.7276
3182.408203,	875.026001
3181.108398,	863.922363
3179.807617,	883.801514
3178.506836,	856.30304
3177.206055,	874.35437
3175.904297,	897.862366
3174.602539,	875.839539
3173.300781,	899.338135
3171.999023,	877.323364
3170.696289,	886.254028
3169.393555,	867.889038
3168.09082,	867.722351
3166.788086,	836.636536
3165.484375,	900.120728
3164.181641,	916.310486
3162.876953,	959.759888
3161.573242,	915.958435
3160.268555,	935.769714
3158.964844,	895.622986
3157.65918,	895.450867
3156.354492,	869.855042
3155.048828,	866.05658
3153.743164,	911.272217
3152.4375,	827.610046
3151.131836,	907.292725
3149.825195,	850.876953
3148.518555,	897.874451
3147.211914,	981.124573
3145.905273,	928.353394
3144.597656,	906.420776
3143.290039,	1014.996033
3141.982422,	983.994385
3140.673828,	962.063599
3139.365234,	938.329712
3138.056641,	997.915466
3136.748047,	914.428955
3135.439453,	946.840271
3134.129883,	946.658081
3132.820312,	930.188599
3131.510742,	975.24353
3130.200195,	1014.854004
3128.889648,	973.059509
3127.579102,	1010.846741
3126.268555,	1008.844238
3124.957031,	1026.726196
3123.645508,	995.804993
3122.333984,	1035.365479
3121.022461,	1004.454407
3119.709961,	953.686707
3118.397461,	937.250183
3117.084961,	1020.124023
3115.772461,	1039.784546
3114.458984,	998.073059
3113.145508,	1037.57959
3111.832031,	1026.55481
3110.518555,	1024.553223
3109.204102,	1011.73175
3107.889648,	1087.266846
3106.575195,	1076.240845
3105.259766,	1016.55426
3103.945312,	969.504944
3102.629883,	983.73175
3101.313477,	1046.589722
3099.998047,	952.735352
3098.681641,	1037.182983
3097.365234,	1054.986206
3096.048828,	1097.982056
3094.731445,	1085.172974
3093.414062,	1070.56958
3092.09668,	1061.368408
3090.779297,	1030.587891
3089.460938,	1113.10791
3088.143555,	1022.99884
3086.824219,	1038.97937
3085.505859,	1044.170532
3084.186523,	955.923523
3082.868164,	935.977539
3081.547852,	1047.158569
3080.228516,	1007.448792
3078.908203,	976.731506
3077.587891,	994.494141
3076.267578,	1030.197632
3074.947266,	1015.643372
3073.625977,	1015.447388
3072.304688,	1031.394897
3070.983398,	963.047241
3069.661133,	982.584717
3068.339844,	1066.651489
3067.016602,	967.866516
3065.694336,	965.887634
3064.37207,	1010.492432
3063.048828,	1017.462524
3061.725586,	979.655823
3060.401367,	1083.322266
3059.078125,	1025.824341
3057.753906,	1097.223145
3056.429688,	1118.486084
3055.104492,	1121.848511
3053.780273,	1053.654053
3052.455078,	1015.891052
3051.129883,	1056.823242
3049.803711,	1051.255493
3048.478516,	999.214661
3047.152344,	1081.230835
3045.825195,	1091.742676
3044.499023,	1066.521118
3043.171875,	1103.823486
3041.844727,	1062.537109
3040.517578,	1140.890625
3039.189453,	1042.490356
3037.862305,	1106.539429
3036.53418,	1049.224731
3035.205078,	1049.021851
3033.876953,	986.389221
3032.547852,	1014.732178
3031.21875,	971.743469
3029.888672,	991.164856
3028.55957,	1001.667053
3027.229492,	985.435425
3025.899414,	1042.25708
3024.568359,	1024.242432
3023.238281,	1079.25354
3021.907227,	1054.116211
3020.575195,	1037.889893
3019.244141,	1002.090759
3017.912109,	985.880615
3016.580078,	939.429993
3015.248047,	962.373535
3013.915039,	960.40863
3012.583008,	1015.346558
3011.249023,	1011.594238
3009.916016,	1002.510803
3008.583008,	1052.077026
3007.249023,	1053.650024
3005.915039,	1149.375244
3004.580078,	1033.704468
3003.245117,	1028.17688
3001.911133,	1049.282959
3000.575195,	992.276672
2999.240234,	1008.057129
2997.904297,	1000.76416
2996.568359,	1016.536743
2995.232422,	998.602539
2993.895508,	1060.477051
2992.55957,	1076.22876
2991.222656,	1067.156616
2989.884766,	1049.226318
2988.547852,	988.774963
2987.209961,	1027.559692
2985.87207,	1004.333374
2984.533203,	975.803101
2983.195312,	988.00824
2981.856445,	1028.533081
2980.517578,	994.704773
2979.177734,	923.728027
2977.838867,	851.009583
2976.499023,	937.520935
2975.158203,	912.579102
2973.818359,	956.607605
2972.477539,	921.064392
2971.136719,	919.118103
2969.795898,	927.775696
2968.454102,	892.258667
2967.112305,	936.248108
2965.770508,	853.056702
2964.428711,	886.44165
2963.085938,	888.035034
2961.743164,	857.855347
2960.400391,	892.984619
2959.057617,	891.046753
2957.713867,	841.47876
2956.370117,	897.755737
2955.026367,	890.52771
2953.681641,	879.776245
2952.337891,	856.689758
2950.993164,	934.068665
2949.647461,	875.739502
2948.302734,	845.6203
2946.957031,	801.421814
2945.611328,	861.14093
2944.264648,	860.973572
2942.918945,	867.847595
2941.572266,	835.998962
2940.225586,	869.269897
2938.87793,	872.619568
2937.53125,	912.90625
2936.183594,	907.452881
2934.834961,	889.693542
2933.487305,	877.214966
2932.138672,	922.742065
2930.790039,	848.757629
2929.441406,	878.460205
2928.091797,	858.966919
2926.742188,	830.700073
2925.392578,	842.829773
2924.042969,	826.865784
2922.692383,	879.361267
2921.341797,	896.738892
2919.991211,	893.055359
2918.639648,	943.752991
2917.289062,	912.000122
2915.9375,	918.836609
2914.584961,	894.113464
2913.233398,	886.928162
2911.880859,	867.47821
2910.52832,	897.095703
2909.174805,	868.892273
2907.822266,	868.723083
2906.46875,	938.598572
2905.115234,	896.397217
2903.760742,	922.479126
2902.407227,	922.2995
2901.052734,	892.374023
2899.697266,	848.464905
2898.342773,	853.546814
2896.987305,	877.862793
2895.631836,	872.446533
2894.276367,	769.141663
2892.919922,	858.124939
2891.563477,	798.54718
2890.207031,	845.561279
2888.850586,	833.169678
2887.493164,	801.573059
2886.135742,	906.177185
2884.77832,	865.85022
2883.419922,	919.786499
2882.061523,	863.767639
2880.703125,	877.556335
2879.344727,	818.078857
2877.985352,	809.199524
2876.626953,	781.143738
2875.266602,	807.140625
2873.907227,	801.754333
2872.546875,	808.568359
2871.186523,	815.3797
2869.826172,	857.026794
2868.46582,	818.544739
2867.104492,	795.74884
2865.743164,	806.039001
2864.381836,	842.433533
2863.019531,	800.503723
2861.657227,	782.948608
2860.294922,	775.837585
2858.932617,	800.035034
2857.569336,	789.445679
2856.206055,	803.199768
2854.842773,	823.901184
2853.478516,	790.721191
2852.115234,	813.154419
2850.750977,	873.79657
2849.385742,	849.310242
2848.021484,	831.77948
2846.65625,	857.659241
2845.291016,	800.2099
2843.924805,	803.524475
2842.55957,	784.281006
2841.193359,	801.475769
2839.827148,	813.460327
2838.459961,	825.440186
2837.092773,	846.084229
2835.725586,	814.716919
2834.358398,	788.561157
2832.990234,	868.114136
2831.62207,	873.141663
2830.253906,	872.971008
2828.885742,	862.409851
2827.516602,	831.075867
2826.147461,	804.947327
2824.77832,	787.482544
2823.40918,	847.892273
2822.039062,	847.72644
2820.668945,	849.290344
2819.297852,	786.866638
2817.927734,	893.913147
2816.556641,	867.807739
2815.185547,	876.279785
2813.813477,	843.275818
2812.442383,	867.298401
2811.070312,	860.219299
2809.697266,	913.588257
2808.325195,	899.596069
2806.952148,	906.325317
2805.579102,	904.421875
2804.206055,	945.660645
2802.832031,	902.342468
2801.458008,	945.290344
2800.083984,	948.554565
2798.709961,	1015.61676
2797.334961,	991.282349
2795.959961,	1068.651611
2794.584961,	1008.127014
2793.208984,	918.335754
2791.833008,	904.374939
2790.457031,	864.585266
2789.081055,	792.094238
2787.704102,	819.484741
2786.327148,	791.783875
2784.950195,	800.233337
2783.572266,	786.311768
2782.195312,	796.479187
2780.817383,	866.839844
2779.438477,	837.437012
2778.060547,	804.607117
2776.681641,	838.827576
2775.302734,	802.57312
2773.922852,	743.995728
2772.543945,	735.260376
2771.164062,	748.856689
2769.783203,	759.013123
2768.40332,	786.334473
2767.022461,	779.314026
2765.641602,	803.188171
2764.259766,	830.484619
2762.878906,	742.829102
2761.49707,	804.430725
2760.115234,	759.68634
2758.732422,	805.82959
2757.349609,	761.102356
2755.966797,	774.663879
2754.583984,	741.954895
2753.201172,	770.933411
2751.817383,	769.069214
2750.433594,	786.043396
2749.048828,	816.708252
2747.664062,	862.767578
2746.279297,	785.580444
2744.894531,	816.227234
2743.509766,	805.801941
2742.124023,	814.196106
2740.738281,	767.861877
2739.351562,	752.322632
2737.96582,	805.169006
2736.579102,	748.608765
2735.192383,	767.258667
2733.804688,	792.735107
2732.416992,	819.909668
2731.029297,	818.04071
2729.641602,	848.614502
2728.25293,	867.226196
2726.864258,	832.919678
2725.475586,	837.875366
2724.086914,	827.473877
2722.697266,	781.2547
2721.307617,	777.690125
2719.917969,	711.037354
2718.527344,	772.269958
2717.136719,	807.911621
2715.746094,	785.599182
2714.355469,	838.261963
2712.963867,	822.766052
2711.572266,	837.93219
2710.180664,	796.900696
2708.788086,	851.222107
2707.396484,	791.480774
2706.003906,	782.816162
2704.610352,	762.244873
2703.216797,	745.083801
2701.824219,	707.520203
2700.429688,	734.587891
2699.036133,	787.146423
2697.641602,	776.792847
2696.24707,	819.125671
2694.852539,	784.982483
2693.457031,	796.719238
2692.061523,	750.704834
2690.666016,	728.481812
2689.270508,	741.92041
2687.874023,	714.615479
2686.477539,	704.292175
2685.080078,	707.546936
2683.683594,	717.58606
2682.286133,	736.101685
2680.888672,	790.220703
2679.490234,	825.668762
2678.092773,	830.591309
2676.694336,	791.448364
2675.294922,	781.125916
2673.896484,	718.290894
2672.49707,	731.69928
2671.097656,	719.701111
2669.697266,	722.945435
2668.297852,	778.663513
2666.897461,	790.356873
2665.49707,	783.432678
2664.095703,	740.984558
2662.694336,	744.221252
2661.292969,	815.099731
2659.891602,	764.216614
2658.489258,	716.734375
2657.086914,	763.915161
2655.68457,	736.728516
2654.28125,	712.931396
2652.87793,	667.185608
2651.474609,	705.895081
2650.071289,	682.118042
2648.666992,	749.506531
2647.262695,	680.161072
2645.858398,	786.33374
2644.454102,	762.559387
2643.048828,	770.84259
2641.643555,	772.37677
2640.237305,	740.188782
2638.832031,	773.757507
2637.425781,	750.008972
2636.019531,	704.363647
2634.612305,	768.244934
2633.205078,	754.617859
2631.797852,	771.309631
2630.390625,	806.515991
2628.982422,	779.421997
2627.574219,	821.345093
2626.166016,	859.886108
2624.757812,	856.351318
2623.348633,	871.320862
2621.939453,	829.104797
2620.529297,	849.117981
2619.120117,	796.836365
2617.709961,	833.655518
2616.299805,	851.975342
2614.888672,	823.245361
2613.477539,	811.324219
2612.066406,	824.599243
2610.655273,	856.338989
2609.243164,	889.744934
2607.831055,	906.353271
2606.418945,	887.714905
2605.006836,	887.539246
2603.59375,	905.815491
2602.180664,	920.730225
2600.767578,	984.265381
2599.353516,	994.129272
2597.939453,	975.495361
2596.525391,	1097.634033
2595.110352,	1214.697998
2593.696289,	1234.55896
2592.280273,	1190.770142
2590.865234,	1272.58252
2589.449219,	1078.132812
2588.033203,	969.123108
2586.617188,	831.707825
2585.201172,	754.579346
2583.78418,	689.190979
2582.367188,	709.124023
2580.950195,	725.704895
2579.532227,	708.84314
2578.114258,	712.045654
2576.696289,	715.246887
2575.277344,	710.092773
2573.858398,	676.542542
2572.439453,	684.759216
2571.020508,	729.708496
2569.600586,	651.098206
2568.180664,	622.593567
2566.760742,	652.508972
2565.339844,	642.368652
2563.919922,	610.546326
2562.499023,	647.117493
2561.077148,	636.984192
2559.655273,	573.505554
2558.233398,	638.398438
2556.811523,	626.606323
2555.389648,	653.140808
2553.966797,	596.372559
2552.543945,	614.574951
2551.120117,	604.461914
2549.697266,	571.044922
2548.273438,	574.260681
2546.848633,	587.460266
2545.424805,	562.385742
2544,	608.853088
2542.575195,	612.058655
2541.149414,	595.308411
2539.723633,	595.190308
2538.297852,	649.925171
2536.87207,	606.587158
2535.445312,	624.743835
2534.019531,	621.297363
2532.591797,	576.329895
2531.165039,	577.875977
2529.737305,	591.043091
2528.30957,	614.164368
2526.881836,	600.765808
2525.453125,	615.579651
2524.024414,	610.480591
2522.595703,	613.676514
2521.166016,	625.162354
2519.737305,	639.959473
2518.306641,	629.886719
2516.876953,	578.386292
2515.446289,	591.526855
2514.015625,	564.903564
2512.584961,	563.134949
2511.154297,	624.293213
2509.722656,	569.533569
2508.291016,	624.044983
2506.858398,	615.646118
2505.426758,	618.832947
2503.994141,	635.25293
2502.560547,	588.815308
2501.12793,	615.156494
2499.694336,	633.220642
2498.260742,	586.811035
2496.826172,	637.926758
2495.391602,	621.276489
2493.957031,	568.288818
2492.522461,	587.99585
2491.086914,	596.135559
2489.651367,	638.943359
2488.21582,	633.864136
2486.780273,	618.884705
2485.34375,	608.861328
2483.907227,	615.338928
2482.469727,	593.774597
2481.033203,	573.867859
2479.595703,	583.645874
2478.157227,	552.210266
2476.719727,	558.692566
2475.28125,	578.354065
2473.842773,	612.834351
2472.40332,	606.123962
2470.964844,	604.356506
2469.525391,	615.761047
2468.084961,	605.761841
2466.645508,	585.891968
2465.205078,	610.456726
2463.763672,	590.593811
2462.323242,	623.371704
2460.881836,	598.580688
2459.44043,	664.226379
2457.999023,	705.188904
2456.556641,	806.94342
2455.114258,	808.425659
2453.671875,	694.910339
2452.228516,	615.932434
2450.785156,	617.451782
2449.341797,	568.073669
2447.898438,	594.224426
2446.454102,	607.235352
2445.009766,	556.247864
2443.56543,	538.091187
2442.120117,	564.226929
2440.674805,	559.194763
2439.229492,	562.362305
2437.783203,	573.724548
2436.337891,	632.609985
2434.890625,	614.459595
2433.444336,	596.316406
2431.99707,	563.43927
2430.549805,	553.501343
2429.102539,	571.400574
2427.654297,	551.643433
2426.207031,	574.445618
2424.757812,	536.696716
2423.30957,	557.856812
2421.860352,	547.931702
2420.411133,	619.775024
2418.961914,	618.016296
2417.511719,	591.738647
2416.061523,	575.277344
2414.611328,	580.064331
2413.160156,	573.413818
2411.708984,	538.999268
2410.257812,	569.918701
2408.806641,	576.33551
2407.355469,	579.484985
2405.902344,	594.057434
2404.449219,	579.253357
2402.998047,	575.874817
2401.544922,	598.59436
2400.089844,	609.889771
2398.636719,	567.377502
2397.183594,	533.032593
2395.728516,	580.188599
2394.275391,	578.443115
2392.820312,	565.294678
2391.365234,	586.355591
2389.910156,	540.641968
2388.453125,	561.69928
2386.998047,	620.187317
2385.541016,	598.906189
2384.083984,	585.769287
2382.628906,	616.561462
2381.169922,	644.088318
2379.712891,	583.791504
2378.255859,	595.055481
2376.796875,	544.545593
2375.339844,	562.313599
2373.880859,	581.69928
2372.421875,	534.471375
2370.962891,	628.56842
2369.503906,	587.845459
2368.042969,	623.446045
2366.583984,	615.205017
2365.123047,	611.835938
2363.662109,	593.86499
2362.201172,	605.101807
2360.740234,	600.114807
2359.279297,	565.940857
2357.816406,	560.963562
2356.355469,	547.883545
2354.892578,	585.048279
2353.429688,	563.867004
2351.966797,	583.193787
2350.503906,	599.273499
2349.041016,	607.25
2347.576172,	571.510071
2346.111328,	550.3526
2344.648438,	587.464539
2343.183594,	527.479431
2341.71875,	548.40387
2340.251953,	530.502625
2338.787109,	554.652161
2337.320312,	564.241333
2335.855469,	554.429688
2334.388672,	573.711487
2332.921875,	589.754028
2331.455078,	573.481323
2329.986328,	589.517395
2328.519531,	600.702637
2327.050781,	598.967651
2325.583984,	552.037231
2324.115234,	564.836975
2322.646484,	555.042664
2321.175781,	540.412659
2319.707031,	593.528137
2318.236328,	570.833618
2316.767578,	557.821411
2315.296875,	591.558838
2313.826172,	614.00177
2312.355469,	578.431396
2310.884766,	573.482483
2309.412109,	560.482666
2307.941406,	586.134155
2306.46875,	558.647522
2304.996094,	561.754517
2303.523438,	595.436707
2302.050781,	572.791504
2300.578125,	598.414673
2299.103516,	599.90271
2297.628906,	614.254089
2296.15625,	636.638062
2294.681641,	636.510071
2293.207031,	597.813477
2291.730469,	544.672119
2290.255859,	579.902954
2288.78125,	573.362122
2287.304688,	598.938538
2285.828125,	585.974792
2284.351562,	613.143433
2282.875,	614.624817
2281.398438,	603.270142
2279.919922,	632.022888
2278.441406,	627.084351
2276.964844,	663.838074
2275.486328,	628.435181
2274.007812,	601.060608
2272.529297,	610.554688
2271.048828,	555.957581
2269.570312,	584.679138
2268.089844,	566.944519
2266.609375,	566.830383
2265.128906,	605.137695
2263.648438,	585.809021
2262.167969,	542.484314
2260.685547,	582.37323
2259.205078,	571.058716
2257.722656,	599.730774
2256.240234,	572.427673
2254.757812,	516.360046
2253.275391,	569.000427
2251.791016,	549.7099
2250.308594,	579.954895
2248.824219,	559.072449
2247.341797,	576.5271
2245.857422,	562.040588
2244.371094,	568.312805
2242.886719,	576.178589
2241.402344,	529.78595
2239.916016,	513.724976
2238.429688,	527.977295
2236.945312,	535.844666
2235.458984,	529.358826
2233.970703,	529.252075
2232.484375,	564.209167
2230.996094,	581.623779
2229.509766,	595.844971
2228.021484,	581.38916
2226.533203,	584.456909
2225.044922,	558.86377
2223.556641,	533.280884
2222.066406,	518.849182
2220.578125,	536.248108
2219.087891,	512.276123
2217.597656,	555.118896
2216.107422,	551.826294
2214.617188,	573.974304
2213.126953,	570.679138
2211.634766,	568.974609
2210.142578,	568.859741
2208.652344,	538.560059
2207.160156,	532.0979
2205.666016,	546.282776
2204.173828,	539.821594
2202.681641,	536.537781
2201.1875,	557.061279
2199.693359,	568.055969
2198.201172,	531.453369
2196.707031,	564.654236
2195.210938,	564.540161
2193.716797,	589.793518
2192.220703,	540.534851
2190.726562,	578.461365
2189.230469,	551.407898
2187.734375,	544.959656
2186.238281,	490.998108
2184.742188,	517.819092
2183.244141,	549.378906
2181.748047,	531.855835
2180.25,	528.58313
2178.751953,	582.273254
2177.253906,	567.917969
2175.755859,	578.874451
2174.255859,	578.757385
2172.757812,	532.791748
2171.257812,	532.68396
2169.757812,	526.254822
2168.257812,	545.108643
2166.757812,	505.505676
2165.257812,	543.308655
2163.755859,	533.724304
2162.255859,	528.880005
2160.753906,	561.919922
2159.251953,	544.44696
2157.75,	542.758972
2156.248047,	544.226562
2154.744141,	545.693481
2153.242188,	523.507385
2151.738281,	562.814148
2150.234375,	528.023926
2148.730469,	523.189392
2147.226562,	551.443359
2145.722656,	557.632568
2144.216797,	573.268738
2142.712891,	573.152588
2141.207031,	598.224854
2139.701172,	520.979736
2138.195312,	547.626038
2136.689453,	552.234985
2135.181641,	531.674072
2133.675781,	537.856995
2132.167969,	569.19519
2130.660156,	591.08844
2129.152344,	559.534119
2127.644531,	573.563293
2126.134766,	576.589172
2124.626953,	551.339905
2123.117188,	565.362183
2121.607422,	502.4422
2120.097656,	533.736572
2118.587891,	571.296143
2117.078125,	527.243347
2115.566406,	505.172333
2114.056641,	585.065369
2112.544922,	548.877563
2111.033203,	589.531616
2109.521484,	576.871338
2108.009766,	553.245239
2106.496094,	598.574463
2104.984375,	540.48761
2103.470703,	567.005188
2101.957031,	543.400146
2100.443359,	533.895752
2098.929688,	513.437683
2097.416016,	543.069153
2095.900391,	550.782471
2094.386719,	547.541809
2092.871094,	606.865906
2091.355469,	559.829529
2089.839844,	564.406128
2088.322266,	586.175354
2086.806641,	561.051208
2085.289062,	529.687195
2083.773438,	581.131531
2082.255859,	535.71936
2080.738281,	541.856689
2079.21875,	533.940369
2077.701172,	577.537354
2076.181641,	608.631836
2074.664062,	552.338135
2073.144531,	556.905701
2071.625,	556.792419
2070.105469,	559.797852
2068.583984,	575.274109
2067.064453,	531.513733
2065.542969,	540.755859
2064.021484,	534.413635
2062.5,	535.86261
2060.978516,	543.54071
2059.457031,	537.201721
2057.933594,	562.001038
2056.412109,	566.55603
2054.888672,	555.547668
2053.365234,	561.657959
2051.841797,	525.766602
2050.318359,	534.990784
2048.792969,	567.534546
2047.269531,	531.663818
2045.744141,	543.989624
2044.21875,	528.339417
2042.693359,	537.553589
2041.167969,	568.510254
2039.642578,	557.523499
2038.115234,	569.831299
2036.589844,	583.686462
2035.0625,	513.725708
2033.535156,	580.345215
2032.007812,	561.610046
2030.478516,	569.251038
2028.951172,	539.670288
2027.421875,	561.266724
2025.892578,	548.75116
2024.363281,	561.037964
2022.833984,	548.527466
2021.304688,	571.653564
2019.775391,	600.965759
2018.244141,	523.414978
2016.712891,	543.435486
2015.181641,	526.297363
2013.650391,	543.213867
2012.119141,	516.798889
2010.587891,	549.180176
2009.054688,	570.721558
2007.521484,	536.585327
2005.988281,	553.482239
2004.455078,	584.283813
2002.921875,	539.347717
2001.388672,	543.872925
1999.853516,	540.672363
1998.320312,	543.65094
1996.785156,	521.921875
1995.25,	538.797485
1993.714844,	509.360657
1992.177734,	518.515869
1990.642578,	530.753052
1989.105469,	587.719849
1987.570312,	547.50116
1986.033203,	568.976501
1984.494141,	510.278473
1982.957031,	520.963379
1981.419922,	513.151978
1979.880859,	520.750549
1978.341797,	489.836823
1976.802734,	520.537781
1975.263672,	538.908264
1973.724609,	535.719238
1972.185547,	524.835999
1970.644531,	570.892517
1969.103516,	556.929504
1967.564453,	598.34613
1966.023438,	521.331238
1964.480469,	551.975403
1962.939453,	507.283081
1961.396484,	511.79007
1959.855469,	517.831787
1958.3125,	530.016113
1956.769531,	514.548035
1955.226562,	555.905334
1953.681641,	597.245667
1952.138672,	575.633179
1950.59375,	543.286499
1949.048828,	540.106567
1947.503906,	563.007202
1945.958984,	521.480286
1944.414062,	527.507385
1942.867188,	504.402344
1941.322266,	519.627319
1939.775391,	540.976074
1938.228516,	524.011169
1936.681641,	562.200928
1935.134766,	557.491089
1933.585938,	569.626953
1932.039062,	525.112976
1930.490234,	526.536072
1928.941406,	524.897888
1927.392578,	541.620361
1925.841797,	507.856262
1924.292969,	510.810974
1922.742188,	518.351624
1921.193359,	535.061584
1919.642578,	544.122559
1918.091797,	565.404724
1916.539062,	559.177612
1914.988281,	554.480469
1913.4375,	525.350342
1911.884766,	514.554565
1910.332031,	546.506714
1908.779297,	511.291107
1907.226562,	531.023315
1905.671875,	559.901123
1904.119141,	555.210388
1902.564453,	564.24646
1901.009766,	591.57489
1899.455078,	568.588074
1897.900391,	518.177673
1896.345703,	528.737549
1894.789062,	525.582153
1893.232422,	476.73468
1891.677734,	494.910431
1890.121094,	519.168701
1888.5625,	549.505615
1887.005859,	529.608582
1885.447266,	506.676605
1883.890625,	523.306213
1882.332031,	515.594116
1880.773438,	523.091309
1879.214844,	494.098145
1877.65625,	501.596619
1876.095703,	499.973907
1874.535156,	518.103577
1872.976562,	534.706726
1871.416016,	523.965698
1869.853516,	499.563202
1868.292969,	526.786621
1866.732422,	528.196228
1865.169922,	496.220306
1863.607422,	509.772949
1862.044922,	512.701904
1860.482422,	473.166016
1858.919922,	486.714935
1857.355469,	509.353882
1855.792969,	518.342896
1854.228516,	534.904724
1852.664062,	516.614746
1851.099609,	528.625977
1849.535156,	540.632263
1847.96875,	501.155396
1846.404297,	517.703613
1844.837891,	520.623962
1843.271484,	532.621887
1841.705078,	479.563629
1840.138672,	494.590027
1838.570312,	527.756592
1837.001953,	511.017212
1835.435547,	538.120361
1833.867188,	530.453308
1832.298828,	534.876953
1830.728516,	518.14978
1829.160156,	525.594727
1827.589844,	522.466492
1826.021484,	531.417114
1824.451172,	522.251343
1822.880859,	540.252808
1821.308594,	519.018677
1819.738281,	514.386353
1818.166016,	526.345642
1816.595703,	512.666565
1815.023438,	527.636292
1813.451172,	533.556458
1811.876953,	492.759888
1810.304688,	536.349731
1808.730469,	503.10083
1807.158203,	518.056946
1805.583984,	484.825409
1804.009766,	540.423767
1802.433594,	523.756775
1800.859375,	520.639343
1799.283203,	516.018677
1797.708984,	509.895782
1796.132812,	538.362976
1794.556641,	542.762451
1792.978516,	523.10907
1791.402344,	456.874542
1789.824219,	491.339325
1788.248047,	509.265045
1786.669922,	489.634644
1785.091797,	483.527069
1783.511719,	513.453796
1781.933594,	513.347839
1780.353516,	475.724213
1778.775391,	531.140686
1777.195312,	541.531677
1775.615234,	527.921875
1774.033203,	485.827759
1772.453125,	496.221558
1770.871094,	506.611023
1769.291016,	497.515167
1767.708984,	512.394714
1766.126953,	548.238953
1764.542969,	491.216492
1762.960938,	536.034058
1761.376953,	511.971436
1759.794922,	526.83252
1758.210938,	460.883179
1756.626953,	478.740723
1755.041016,	502.573853
1753.457031,	494.992767
1751.871094,	512.832092
1750.287109,	514.220886
1748.701172,	497.674896
1747.115234,	543.892517
1745.527344,	545.273926
1743.941406,	518.27655
1742.353516,	551.021606
1740.767578,	504.625397
1739.179688,	467.204376
1737.591797,	502.924316
1736.001953,	519.232788
1734.414062,	532.551025
1732.824219,	526.475098
1731.234375,	521.892822
1729.646484,	548.619446
1728.054688,	533.600891
1726.464844,	524.549255
1724.875,	500.602478
1723.283203,	519.863403
1721.691406,	516.777222
1720.099609,	513.692322
1718.507812,	485.301483
1716.916016,	483.712646
1715.322266,	517.837341
1713.730469,	537.070618
1712.136719,	544.396484
1710.542969,	530.899719
1708.949219,	496.59317
1707.355469,	499.463287
1705.759766,	533.542175
1704.164062,	494.798706
1702.570312,	479.840424
1700.974609,	497.564178
1699.378906,	472.216766
1697.78125,	491.419342
1696.185547,	553.659851
1694.587891,	511.992126
1692.990234,	517.820862
1691.392578,	499.912476
1689.794922,	480.528351
1688.197266,	504.153564
1686.597656,	512.944031
1684.998047,	529.141724
1683.400391,	512.731262
1681.800781,	463.73291
1680.199219,	496.224579
1678.599609,	510.931244
1677,	512.305847
1675.398438,	478.151611
1673.796875,	512.093262
1672.195312,	477.953186
1670.59375,	517.798401
1668.990234,	492.545959
1667.388672,	496.880127
1665.785156,	462.771423
1664.181641,	527.715942
1662.578125,	511.349579
1660.974609,	515.676147
1659.369141,	543.637268
1657.765625,	493.307434
1656.160156,	505.01828
1654.554688,	478.338989
1652.949219,	472.335419
1651.34375,	498.800629
1649.736328,	491.319824
1648.130859,	510.394379
1646.523438,	497.014923
1644.916016,	493.962616
1643.308594,	511.550446
1641.701172,	511.444122
1640.091797,	486.286652
1638.484375,	512.704773
1636.875,	505.233246
1635.265625,	508.073547
1633.65625,	466.741516
1632.044922,	519.638794
1630.435547,	491.567291
1628.824219,	479.69342
1627.212891,	507.545441
1625.601562,	501.556488
1623.990234,	495.570007
1622.378906,	523.401245
1620.765625,	492.42395
1619.154297,	446.763367
1617.541016,	501.034882
1615.927734,	478.895508
1614.314453,	525.794189
1612.699219,	480.164551
1611.085938,	513.830627
1609.470703,	528.401428
1607.855469,	525.356445
1606.240234,	556.057617
1604.625,	498.7341
1603.007812,	510.362701
1601.392578,	521.98645
1599.775391,	504.286316
1598.158203,	502.715637
1596.541016,	495.28421
1594.923828,	527.411743
1593.304688,	511.189819
1591.6875,	566.731323
1590.068359,	546.115601
1588.449219,	528.436035
1586.830078,	507.836792
1585.210938,	494.562103
1583.589844,	494.459015
1581.96875,	487.042938
1580.349609,	538.121399
1578.728516,	519.003479
1577.105469,	581.747314
1575.484375,	527.555237
1573.863281,	537.672668
1572.240234,	571.15802
1570.617188,	566.657532
1568.994141,	550.4776
1567.371094,	554.74231
1565.746094,	540.031128
1564.123047,	516.570618
1562.498047,	535.428955
1560.873047,	557.196594
1559.248047,	574.5802
1557.623047,	612.368835
1555.998047,	600.579224
1554.371094,	552.359253
1552.744141,	530.387329
1551.117188,	556.499023
1549.490234,	519.970337
1547.863281,	515.493103
1546.234375,	541.591492
1544.607422,	561.856567
1542.978516,	585.023743
1541.349609,	579.081604
1539.720703,	570.232544
1538.089844,	574.476501
1536.460938,	561.269836
1534.830078,	568.421387
1533.199219,	542.14032
1531.568359,	523.135925
1529.9375,	536.102234
1528.306641,	514.201965
1526.673828,	540.234863
1525.041016,	560.449036
1523.408203,	524.040955
1521.775391,	535.541992
1520.142578,	541.234131
1518.509766,	515.007874
1516.875,	482.990814
1515.240234,	501.741333
1513.605469,	494.387268
1511.970703,	521.824585
1510.335938,	510.121704
1508.699219,	534.646362
1507.064453,	518.599854
1505.427734,	564.836853
1503.791016,	534.31073
1502.154297,	490.768066
1500.515625,	500.797058
1498.878906,	500.6922
1497.240234,	489.013092
1495.601562,	496.143097
1493.962891,	485.915955
1492.324219,	529.19043
1490.683594,	543.535339
1489.044922,	498.618103
1487.404297,	511.518341
1485.763672,	495.519867
1484.123047,	478.08371
1482.482422,	508.308777
1480.839844,	456.22702
1479.199219,	476.339752
1477.556641,	499.330322
1475.914062,	489.125732
1474.271484,	522.201782
1472.626953,	503.343109
1470.984375,	520.540894
1469.339844,	523.315002
1467.695312,	544.825317
1466.050781,	500.038971
1464.40625,	474.000916
1462.759766,	508.471832
1461.115234,	508.365173
1459.46875,	508.258514
1457.822266,	512.470459
1456.175781,	506.606049
1454.529297,	515.13324
1452.880859,	517.902405
1451.232422,	510.602112
1449.585938,	520.561035
1447.9375,	507.51236
1446.287109,	520.342529
1444.638672,	471.371582
1442.990234,	487.077484
1441.339844,	497.030731
1439.689453,	525.650452
1438.039062,	501.1297
1436.388672,	532.607666
1434.736328,	518.142822
1433.085938,	506.553986
1431.433594,	510.751648
1429.78125,	486.259613
1428.128906,	520.575684
1426.474609,	467.416016
1424.822266,	477.352203
1423.167969,	533.14624
1421.513672,	512.973755
1419.859375,	511.43335
1418.205078,	541.403809
1416.550781,	494.034515
1414.894531,	495.362335
1413.238281,	521.02301
1411.583984,	486.567535
1409.925781,	456.418823
1408.269531,	499.237183
1406.613281,	504.852875
1404.955078,	521.905212
1403.296875,	510.358795
1401.638672,	510.251434
1399.980469,	480.13559
1398.322266,	474.319855
1396.662109,	478.505157
1395.003906,	464.123718
1393.34375,	452.603821
1391.683594,	478.203064
1390.021484,	490.94693
1388.361328,	430.914978
1386.699219,	475.047943
1385.039062,	470.669098
1383.376953,	462.01416
1381.712891,	434.829132
1380.050781,	467.521027
1378.388672,	461.72226
1376.724609,	430.28009
1375.060547,	441.585205
1373.396484,	447.188812
1371.732422,	418.617218
1370.066406,	447.000366
1368.402344,	422.710602
1366.736328,	435.428223
1365.070312,	443.872467
1363.404297,	428.132843
1361.738281,	418.088104
1360.070312,	433.639404
1358.404297,	423.597687
1356.736328,	383.715637
1355.068359,	390.739044
1353.400391,	407.703461
1351.730469,	416.139099
1350.0625,	448.710632
1348.392578,	410.284851
1346.722656,	420.133881
1345.052734,	398.759155
1343.382812,	392.999939
1341.710938,	387.243103
1340.041016,	450.979187
1338.369141,	377.154541
1336.697266,	388.415527
1335.025391,	416.679047
1333.351562,	378.332703
1331.679688,	405.169708
1330.005859,	375.34021
1328.332031,	373.844849
1326.658203,	392.171051
1324.984375,	365.194061
1323.308594,	343.889221
1321.634766,	373.529114
1319.958984,	405.985626
1318.283203,	397.414124
1316.607422,	418.539948
1314.929688,	397.246185
1313.253906,	390.095306
1311.576172,	394.252136
1309.898438,	360.26181
1308.220703,	391.260468
1306.542969,	371.407043
1304.863281,	364.269043
1303.185547,	385.365967
1301.505859,	419.15564
1299.826172,	406.368011
1298.146484,	380.889435
1296.466797,	383.629669
1294.785156,	373.677795
1293.103516,	382.057587
1291.421875,	384.795776
1289.740234,	362.166992
1288.058594,	402.948792
1286.376953,	380.325714
1284.693359,	374.611938
1283.009766,	370.308624
1281.326172,	411.054077
1279.642578,	375.781525
1277.958984,	386.958954
1276.273438,	369.995117
1274.587891,	364.29068
1272.904297,	367.026001
1271.216797,	372.571991
1269.53125,	361.248016
1267.845703,	363.982147
1266.158203,	410.271332
1264.470703,	342.756836
1262.783203,	384.817535
1261.095703,	341.207458
1259.408203,	343.942871
1257.71875,	371.940979
1256.029297,	366.249146
1254.341797,	373.186279
1252.650391,	364.691223
1250.960938,	354.797394
1249.271484,	335.093262
1247.580078,	384.084045
1245.888672,	347.564392
1244.197266,	364.304749
1242.505859,	375.434509
1240.814453,	298.32309
1239.121094,	337.467651
1237.427734,	333.196136
1235.734375,	338.724182
1234.041016,	354.045593
1232.347656,	331.584991
1230.652344,	349.698975
1228.958984,	363.609741
1227.263672,	373.319977
1225.568359,	359.261688
1223.873047,	338.221283
1222.175781,	312.997864
1220.480469,	342.268738
1218.783203,	344.989502
1217.085938,	365.862549
1215.388672,	374.161621
1213.689453,	340.582245
1211.992188,	323.763519
1210.292969,	347.413757
1208.59375,	327.810791
1206.894531,	348.660797
1205.195312,	315.122375
1203.494141,	333.17807
1201.794922,	314.988464
1200.09375,	314.921509
1198.392578,	324.60672
1196.691406,	353.787872
1194.988281,	346.749817
1193.287109,	359.206573
1191.583984,	356.346222
1189.880859,	311.736664
1188.177734,	314.453125
1186.474609,	304.648621
1184.769531,	311.537781
1183.066406,	305.909515
1181.361328,	336.428894
1179.65625,	329.407776
1177.951172,	344.623413
1176.244141,	327.878296
1174.539062,	323.641479
1172.832031,	340.237274
1171.125,	331.83429
1169.417969,	292.895935
1167.708984,	335.856537
1166.001953,	339.947662
1164.292969,	321.841095
1162.583984,	324.546448
1160.875,	332.797272
1159.166016,	329.953674
1157.455078,	307.70636
1155.746094,	325.655823
1154.035156,	333.899292
1152.324219,	301.969025
1150.613281,	325.447723
1148.900391,	303.224945
1147.189453,	337.7677
1145.476562,	322.47171
1143.763672,	296.11261
1142.050781,	330.634705
1140.337891,	309.817535
1138.623047,	300.071747
1136.908203,	298.625244
1135.193359,	328.970612
1133.478516,	330.28241
1131.763672,	308.105713
1130.048828,	332.904236
1128.332031,	323.165863
1126.615234,	316.193146
1124.898438,	314.745209
1123.181641,	317.438416
1121.464844,	303.57196
1119.746094,	297.988861
1118.027344,	289.649567
1116.308594,	293.724701
1114.589844,	308.827667
1112.871094,	321.167328
1111.150391,	332.123627
1109.431641,	308.629913
1107.710938,	311.319061
1105.990234,	322.270355
1104.267578,	326.332336
1102.546875,	304.23645
1100.824219,	273.891968
1099.103516,	294.474182
1097.380859,	297.162781
1095.65625,	312.22934
1093.933594,	330.039795
1092.208984,	312.095917
1090.486328,	335.397064
1088.761719,	303.716827
1087.035156,	303.651917
1085.310547,	311.829193
1083.585938,	281.547668
1081.859375,	282.860565
1080.132812,	306.13797
1078.40625,	307.445038
1076.679688,	284.051392
1074.951172,	301.825806
1073.222656,	308.619446
1071.496094,	320.895569
1069.767578,	305.745331
1068.037109,	304.309143
1066.308594,	309.725922
1064.578125,	312.399994
1062.849609,	315.072906
1061.119141,	335.549316
1059.386719,	346.431854
1057.65625,	351.83371
1055.923828,	366.814209
1054.193359,	344.841003
1052.460938,	359.816528
1050.728516,	354.268158
1048.994141,	366.500153
1047.261719,	360.952667
1045.527344,	370.444031
1043.792969,	347.13147
1042.058594,	353.888947
1040.324219,	338.786316
1038.587891,	378.321381
1036.853516,	383.702271
1035.117188,	349.490143
1033.380859,	322.117188
1031.644531,	347.975739
1029.90625,	335.622284
1028.169922,	294.629578
1026.431641,	355.934418
1024.693359,	321.772064
1022.955078,	340.78717
1021.214844,	327.08551
1019.476562,	317.477417
1017.736328,	310.597961
1015.996094,	284.653748
1014.255859,	314.549805
1012.515625,	330.819061
1010.773438,	304.887115
1009.03125,	300.739258
1007.291016,	326.524597
1005.546875,	295.169312
1003.804688,	289.666199
1002.0625,	277.367249
1000.318359,	292.260559
998.574219,	267.734741
996.830078,	301.646454
995.085938,	287.996948
993.339844,	313.740601
991.595703,	320.462677
989.849609,	310.890656
988.103516,	328.468903
986.357422,	320.256226
984.609375,	307.976898
982.863281,	317.405762
981.115234,	324.118286
979.367188,	321.336914
977.619141,	307.71225
975.871094,	294.093445
974.121094,	296.740173
972.371094,	316.996704
970.621094,	304.738983
968.871094,	323.63092
967.121094,	287.008392
965.369141,	280.179047
963.619141,	270.646179
961.867188,	298.999725
960.115234,	285.408905
958.363281,	283.995178
956.609375,	317.735748
954.855469,	321.722717
953.103516,	314.896057
951.347656,	294.560394
949.59375,	286.391571
947.839844,	299.83606
946.083984,	287.618622
944.328125,	278.106506
942.572266,	260.5
940.816406,	260.443909
939.060547,	254.991196
937.302734,	249.540802
935.544922,	273.761475
933.787109,	242.691895
932.029297,	242.639618
930.271484,	221.024033
928.511719,	233.10318
926.751953,	243.829971
924.994141,	227.615387
923.232422,	234.299072
921.472656,	227.517303
919.710938,	223.430374
917.951172,	254.332764
916.189453,	244.860229
914.427734,	215.215332
912.664062,	213.824127
910.902344,	217.811569
909.138672,	220.453064
907.375,	221.749451
905.611328,	217.670685
903.847656,	243.147507
902.082031,	241.751999
900.318359,	236.328735
898.552734,	228.222824
896.787109,	229.515778
895.021484,	224.098618
893.253906,	221.36702
891.486328,	226.68457
889.720703,	209.202118
887.951172,	221.223709
886.183594,	233.240097
884.416016,	238.55043
882.646484,	234.479279
880.876953,	214.334763
879.107422,	198.216843
877.337891,	208.886139
875.568359,	212.857193
873.796875,	216.826523
872.025391,	222.132263
870.253906,	228.77356
868.482422,	236.749527
866.710938,	203.266403
864.9375,	207.233444
863.164062,	199.168442
861.390625,	213.825928
859.617188,	220.460327
857.84375,	193.695984
856.068359,	211.01619
854.292969,	213.641083
852.517578,	226.944565
850.742188,	213.548691
848.966797,	226.84642
847.189453,	208.119919
845.414062,	210.742523
843.636719,	229.366287
841.859375,	207.984879
840.080078,	205.273987
838.302734,	221.221481
836.523438,	217.176483
834.744141,	214.465317
832.964844,	237.059402
831.185547,	217.035492
829.404297,	198.351456
827.623047,	211.617813
825.841797,	223.54776
824.060547,	208.865479
822.279297,	202.169907
820.496094,	222.072784
818.714844,	223.354172
816.931641,	215.330582
815.148438,	225.915237
813.363281,	200.622421
811.580078,	227.145691
809.794922,	232.408661
808.009766,	221.736206
806.224609,	217.705734
804.439453,	224.294464
802.652344,	232.207245
800.867188,	234.81012
799.080078,	245.369797
797.292969,	230.730209
795.503906,	206.816711
793.716797,	234.606522
791.927734,	208.052185
790.138672,	218.60614
788.349609,	241.076889
786.560547,	230.430099
784.771484,	221.111938
782.980469,	222.387695
781.189453,	223.662888
779.398438,	232.87648
777.607422,	194.46257
775.814453,	222.194702
774.021484,	230.080276
772.230469,	212.844147
770.4375,	228.658661
768.642578,	223.323242
766.849609,	207.420929
765.054688,	227.188858
763.259766,	216.57489
761.464844,	237.652512
759.669922,	225.72084
757.873047,	199.277435
756.078125,	229.58107
754.28125,	234.807755
752.484375,	225.524734
750.6875,	204.378571
748.888672,	224.108429
747.089844,	220.105713
745.292969,	209.516174
743.492188,	189.709244
741.693359,	201.522247
739.894531,	200.161575
738.09375,	193.535217
736.292969,	198.75824
734.492188,	194.767029
732.691406,	214.460281
730.888672,	203.890259
729.087891,	216.997253
727.285156,	207.746094
725.482422,	209.015457
723.677734,	194.512924
721.875,	199.726547
720.070312,	199.683075
718.265625,	195.699356
716.460938,	191.717361
714.65625,	228.435333
712.851562,	208.697174
711.044922,	183.718506
709.238281,	190.238449
707.431641,	202.00235
705.625,	198.024094
703.816406,	194.047562
702.007812,	192.694443
700.201172,	199.205261
698.390625,	205.713242
696.582031,	184.708572
694.773438,	200.384781
692.962891,	199.031677
691.152344,	176.733032
689.341797,	183.238754
687.53125,	200.210114
685.71875,	200.166473
683.90625,	190.966873
682.095703,	218.387085
680.28125,	207.880081
678.46875,	201.299057
676.65625,	186.879791
674.841797,	186.83902
673.027344,	205.086197
671.212891,	188.063507
669.396484,	172.353928
667.582031,	182.759735
665.765625,	185.330124
663.949219,	215.301392
662.132812,	206.122391
660.316406,	200.860245
658.498047,	196.904388
656.679688,	204.683701
654.863281,	186.390945
653.042969,	194.169128
651.224609,	207.155365
649.404297,	194.084335
647.585938,	212.274063
645.765625,	201.811615
643.943359,	182.241638
642.123047,	232.958038
640.302734,	197.775879
638.480469,	187.325684
636.658203,	221.100052
634.835938,	208.048676
633.011719,	185.902863
631.189453,	197.559845
629.365234,	222.206238
627.541016,	185.78096
625.716797,	190.935867
623.890625,	185.699722
622.064453,	190.852371
620.240234,	180.426376
618.414062,	185.577896
616.585938,	176.455048
614.759766,	186.793884
612.931641,	191.940598
611.103516,	191.89859
609.275391,	195.74559
607.447266,	194.406708
605.619141,	172.336212
603.789062,	199.50351
601.958984,	200.755035
600.128906,	178.697601
598.298828,	195.488617
596.466797,	191.56279
594.634766,	186.344589
592.804688,	183.716232
590.970703,	187.556473
589.138672,	173.290085
587.306641,	173.252121
585.472656,	204.237595
583.638672,	193.853958
581.804688,	171.846176
579.96875,	175.683899
578.134766,	197.601059
576.298828,	215.634933
574.462891,	194.932556
572.626953,	171.657928
570.791016,	175.491425
568.953125,	172.872742
567.115234,	187.022781
565.277344,	181.823639
563.439453,	189.519241
561.601562,	210.101089
559.761719,	195.879501
557.921875,	191.971344
556.082031,	177.759949
554.242188,	185.447937
552.402344,	177.681946
550.560547,	193.090164
548.71875,	180.177917
546.876953,	176.278259
545.035156,	200.681549
543.191406,	216.071152
541.349609,	241.740814
539.505859,	246.830017
537.662109,	245.490524
535.816406,	239.011566
533.972656,	295.48703
532.126953,	322.395447
530.28125,	500.82309
528.435547,	892.296326
526.589844,	1625.034424
524.742188,	2893.876465
522.894531,	3487.284912
521.046875,	1529.039673
519.199219,	516.835205
517.351562,	325.675629
515.501953,	251.25351
513.652344,	244.790161
511.802734,	240.892303
509.953125,	221.623428
508.103516,	194.678329
506.251953,	199.757507
504.400391,	208.675064
502.548828,	218.868637
500.697266,	212.422226
498.845703,	246.918488
496.992188,	218.724197
495.138672,	217.397263
493.285156,	204.564148
491.431641,	214.745087
489.576172,	164.857254
487.720703,	183.986191
485.865234,	163.507263
484.009766,	166.025497
482.154297,	165.988953
480.296875,	181.271072
478.441406,	168.468399
476.583984,	172.259262
474.724609,	174.772751
472.867188,	177.28511
471.007812,	147.917572
469.150391,	165.73317
467.291016,	177.167953
465.429688,	160.562897
463.570312,	157.979446
461.708984,	166.860855
459.847656,	174.464874
457.986328,	156.601807
456.125,	173.115036
454.263672,	169.259003
452.400391,	156.498245
450.537109,	167.912292
448.673828,	157.700989
446.808594,	156.394714
444.945312,	162.716309
443.080078,	166.49324
441.214844,	158.832535
439.349609,	172.771667
437.484375,	158.762451
435.617188,	165.076508
433.75,	151.075134
431.882812,	173.888443
430.015625,	151.008453
428.148438,	157.318604
426.279297,	148.404938
424.410156,	154.71286
422.541016,	152.142975
420.671875,	160.982407
418.800781,	153.343063
416.929688,	148.241119
415.058594,	145.674896
413.1875,	155.774368
411.316406,	157.006134
409.443359,	167.098633
407.572266,	158.202362
405.699219,	186.004868
403.824219,	203.674576
401.951172,	232.719482
400.076172,	217.494034
398.203125,	194.689972
396.328125,	213.606049
394.451172,	183.230927
392.576172,	183.190399
390.699219,	160.414032
388.822266,	164.167023
386.945312,	151.505264
385.068359,	161.569855
383.189453,	148.914261
381.3125,	152.666428
379.433594,	176.599747
377.552734,	179.082962
375.673828,	167.695496
373.792969,	158.834259
371.914062,	160.059402
370.033203,	154.983841
368.150391,	148.650757
366.269531,	149.877319
364.386719,	137.252182
362.503906,	127.150452
360.621094,	153.553665
358.738281,	138.419342
356.853516,	139.646759
354.970703,	137.10022
353.085938,	147.130005
351.201172,	133.267731
349.314453,	133.238205
347.429688,	130.695297
345.542969,	145.74321
343.65625,	119.332199
341.769531,	134.375946
339.880859,	133.090576
337.994141,	141.848114
336.105469,	138.05162
334.216797,	131.747314
332.326172,	132.972549
330.4375,	145.484848
328.546875,	124.136246
326.65625,	117.840591
324.765625,	110.294373
322.875,	130.31897
320.982422,	135.301193
319.089844,	125.251083
317.197266,	131.484436
315.304688,	116.431793
313.410156,	120.16098
311.517578,	121.385696
309.623047,	112.600891
307.728516,	118.830101
305.832031,	120.054276
303.9375,	123.778473
302.041016,	138.751099
300.144531,	116.225098
298.248047,	117.448723
296.351562,	108.678391
294.453125,	123.641029
292.554688,	112.375961
290.65625,	126.082771
288.757812,	117.318275
286.857422,	121.035561
284.958984,	117.266121
283.058594,	123.476219
281.158203,	119.707893
279.255859,	119.681267
277.355469,	117.16185
275.453125,	117.135788
273.550781,	139.535004
271.648438,	140.749527
269.744141,	175.586441
267.841797,	235.308182
265.9375,	368.442993
264.033203,	536.363464
262.128906,	430.488281
260.222656,	307.245483
258.316406,	243.751862
256.410156,	249.914383
254.503906,	275.963379
252.597656,	400.182068
250.689453,	427.428497
248.783203,	233.542618
246.875,	202.44133
244.964844,	233.438599
243.056641,	341.389954
241.146484,	425.711517
239.236328,	246.932114
237.326172,	168.720032
235.416016,	122.790886
233.503906,	117.803375
231.591797,	143.812057
229.679688,	143.779999
227.767578,	189.598587
225.855469,	225.485291
223.941406,	219.241745
222.027344,	230.338242
220.113281,	205.524841
218.199219,	149.776871
216.283203,	111.379433
214.369141,	95.270035
212.453125,	80.404816
210.537109,	87.807198
208.619141,	80.368935
206.703125,	89.004189
204.785156,	96.399681
202.867188,	82.786369
200.947266,	95.121307
199.029297,	97.570206
197.109375,	87.670097
195.189453,	93.823097
193.269531,	93.802147
191.349609,	95.01516
189.427734,	102.396065
187.505859,	109.773666
185.583984,	97.417778
183.662109,	107.258896
181.740234,	93.676491
179.816406,	94.887871
177.892578,	92.402596
175.96875,	77.600838
174.044922,	65.268654
172.119141,	75.103729
170.193359,	81.241608
168.267578,	88.607391
166.341797,	83.666046
164.414062,	77.496803
162.488281,	86.088303
160.560547,	83.609932
158.632812,	72.527679
156.703125,	61.450386
154.775391,	70.037773
152.845703,	71.250557
150.916016,	83.516441
148.986328,	72.446579
147.054688,	77.340904
145.125,	84.687744
143.193359,	71.17086
141.261719,	72.381737
139.330078,	72.365532
137.396484,	82.159409
135.462891,	62.525246
133.529297,	72.316933
131.595703,	62.497242
129.662109,	63.708405
127.726562,	66.143906
125.791016,	71.027542
123.855469,	74.684647
121.919922,	63.651333
119.982422,	57.51812
118.044922,	66.069839
116.107422,	58.71558
114.169922,	55.033516
112.232422,	72.138878
110.292969,	74.567543
108.353516,	54.99651
106.414062,	52.540436
104.474609,	48.863865
102.533203,	40.303646
100.591797,	25.642021
98.650391,	20.75317
