3199.290039,	964.747314
3197.993164,	939.16687
3196.695312,	949.947693
3195.398438,	986.294983
3194.100586,	971.496826
3192.801758,	1051.644409
3191.503906,	952.869934
3190.205078,	907.060364
3188.90625,	905.061584
3187.607422,	850.156799
3186.307617,	910.186401
3185.008789,	926.424744
3183.708984,	906.19043
3182.408203,	953.413757
3181.108398,	927.714111
3179.807617,	934.825073
3178.506836,	1005.700562
3177.206055,	998.221252
3175.904297,	919.717041
3174.602539,	903.152588
3173.300781,	868.389282
3171.999023,	886.424255
3170.696289,	855.317017
3169.393555,	882.444824
3168.09082,	873.179749
3166.788086,	909.387512
3165.484375,	921.941833
3164.181641,	865.404358
3162.876953,	932.493958
3161.573242,	945.036438
3160.268555,	1008.450867
3158.964844,	979.190247
3157.65918,	948.124451
3156.354492,	891.64679
3155.048828,	907.816101
3153.743164,	889.488831
3152.4375,	829.424988
3151.131836,	925.438599
3149.825195,	887.161682
3148.518555,	932.338318
3147.211914,	883.193481
3145.905273,	970.056824
3144.597656,	955.367493
3143.290039,	993.246155
3141.982422,	951.375793
3140.673828,	945.757385
3139.365234,	916.592346
3138.056641,	900.11615
3136.748047,	892.699951
3135.439453,	916.063416
3134.129883,	899.59668
3132.820312,	908.472107
3131.510742,	908.297302
3130.200195,	911.740479
3128.889648,	951.355591
3127.579102,	981.913757
3126.268555,	987.148682
3124.957031,	956.229126
3123.645508,	957.852356
3122.333984,	916.108765
3121.022461,	896.060059
3119.709961,	892.275085
3118.397461,	915.579651
3117.084961,	913.597778
3115.772461,	870.097473
3114.458984,	929.48938
3113.145508,	918.483459
3111.832031,	968.822388
3110.518555,	961.420593
3109.204102,	955.825012
3107.889648,	986.293518
3106.575195,	908.585266
3105.259766,	884.978943
3103.945312,	895.620728
3102.629883,	873.827637
3101.313477,	889.87146
3099.998047,	875.291809
3098.681641,	918.33905
3097.365234,	946.967102
3096.048828,	966.584229
3094.731445,	952.000854
3093.414062,	978.806458
3092.09668,	931.84552
3090.779297,	989.220459
3089.460938,	987.231445
3088.143555,	889.955017
3086.824219,	882.593201
3085.505859,	889.611755
3084.186523,	869.674805
3082.868164,	835.373474
3081.547852,	921.427734
3080.228516,	892.516968
3078.908203,	960.572327
3077.587891,	992.699036
3076.267578,	935.074829
3074.947266,	938.483215
3073.625977,	900.626465
3072.304688,	954.264526
3070.983398,	921.799377
3069.661133,	860.658142
3068.339844,	874.833496
3067.016602,	849.571716
3065.694336,	838.655701
3064.37207,	874.326782
3063.048828,	877.74054
3061.725586,	865.034302
3060.401367,	891.72644
3059.078125,	954.213623
3057.753906,	946.869568
3056.429688,	935.949158
3055.104492,	944.714478
3053.780273,	957.054138
3052.455078,	912.155701
3051.129883,	938.802368
3049.803711,	908.227478
3048.478516,	945.589539
3047.152344,	839.964417
3045.825195,	954.158081
3044.499023,	920.030701
3043.171875,	962.719788
3041.844727,	958.962097
3040.517578,	931.995178
3039.189453,	960.376343
3037.862305,	995.885437
3036.53418,	974.28009
3035.205078,	927.70636
3033.876953,	975.686951
3032.547852,	930.914185
3031.21875,	880.809692
3029.888672,	921.640686
3028.55957,	978.496826
3027.229492,	999.691223
3025.899414,	935.358887
3024.568359,	961.897278
3023.238281,	958.149231
3021.907227,	993.575806
3020.575195,	1014.746582
3019.244141,	946.913452
3017.912109,	939.611877
3016.580078,	942.988403
3015.248047,	892.997253
3013.915039,	940.844727
3012.583008,	935.328003
3011.249023,	920.924072
3009.916016,	959.850769
3008.583008,	929.453186
3007.249023,	968.363037
3005.915039,	998.375427
3004.580078,	1001.734253
3003.245117,	1010.419128
3001.911133,	935.655029
3000.575195,	958.549927
2999.240234,	961.913635
2997.904297,	904.946289
2996.568359,	911.867188
2995.232422,	902.821838
2993.895508,	916.833862
2992.55957,	959.208801
2991.222656,	999.794617
2989.884766,	1079.356201
2988.547852,	999.406982
2987.209961,	969.095093
2985.87207,	975.992371
2984.533203,	984.657959
2983.195312,	954.366394
2981.856445,	925.856812
2980.517578,	962.845886
2979.177734,	957.350342
2977.838867,	967.78009
2976.499023,	955.210022
2975.158203,	955.024658
2973.818359,	1032.641113
2972.477539,	1037.744385
2971.136719,	1115.314453
2969.795898,	1100.960449
2968.454102,	1150.218628
2967.112305,	1097.000122
2965.770508,	1100.319458
2964.428711,	1146.017212
2963.085938,	1099.892334
2961.743164,	1147.337402
2960.400391,	1080.05249
2959.057617,	1026.909302
2957.713867,	996.720093
2956.370117,	1024.746704
2955.026367,	1006.913513
2953.681641,	1033.164062
2952.337891,	1001.234131
2950.993164,	1060.96106
2949.647461,	1171.76416
2948.302734,	1157.442749
2946.957031,	1102.615479
2945.611328,	1046.048462
2944.264648,	1147.964722
2942.918945,	1191.750122
2941.572266,	1180.958496
2940.225586,	1150.814819
2938.87793,	1078.459229
2937.53125,	1131.018677
2936.183594,	1018.246521
2934.834961,	972.333069
2933.487305,	966.870178
2932.138672,	938.560486
2930.790039,	950.678833
2929.441406,	920.626282
2928.091797,	888.828796
2926.742188,	930.805603
2925.392578,	918.333252
2924.042969,	935.710144
2922.692383,	979.408386
2921.341797,	1016.070129
2919.991211,	993.063538
2918.639648,	956.032288
2917.289062,	1033.015503
2915.9375,	957.413757
2914.584961,	934.436279
2913.233398,	948.276917
2911.880859,	946.339844
2910.52832,	995.215576
2909.174805,	893.417419
2907.822266,	930.024109
2906.46875,	936.847473
2905.115234,	943.668152
2903.760742,	1011.751343
2902.407227,	1062.307007
2901.052734,	1037.603516
2899.697266,	930.687256
2898.342773,	953.243896
2896.987305,	975.791687
2895.631836,	921.401489
2894.276367,	901.993408
2892.919922,	943.762634
2891.563477,	919.115601
2890.207031,	957.371033
2888.850586,	985.13147
2887.493164,	977.954041
2886.135742,	1016.175537
2884.77832,	1019.468811
2883.419922,	979.127563
2882.061523,	985.916565
2880.703125,	992.702942
2879.344727,	952.39032
2877.985352,	938.252869
2876.626953,	985.147766
2875.266602,	971.009338
2873.907227,	967.334045
2872.546875,	996.769653
2871.186523,	970.441223
2869.826172,	975.477661
2868.46582,	1034.501221
2867.104492,	1025.59314
2865.743164,	994.056702
2864.381836,	1065.22583
2863.019531,	1108.523682
2861.657227,	1007.39386
2860.294922,	1021.113647
2858.932617,	1017.435852
2857.569336,	921.599548
2856.206055,	966.621338
2854.842773,	1037.698364
2853.478516,	985.360229
2852.115234,	990.380371
2850.750977,	1026.66748
2849.385742,	963.941101
2848.021484,	1014.111084
2846.65625,	953.147644
2845.291016,	1041.487915
2843.924805,	990.955688
2842.55957,	1002.90802
2841.193359,	988.83374
2839.827148,	967.827026
2838.459961,	960.701416
2837.092773,	1026.397217
2835.725586,	1092.067383
2834.358398,	1008.665039
2832.990234,	1063.91626
2831.62207,	1068.90564
2830.253906,	999.413208
2828.885742,	1037.316284
2827.516602,	1011.142273
2826.147461,	1009.213501
2824.77832,	1005.554688
2823.40918,	1017.470764
2822.039062,	1022.461914
2820.668945,	1049.937378
2819.297852,	1053.190796
2817.927734,	1028.778198
2816.556641,	1019.933411
2815.185547,	1071.584717
2813.813477,	1199.248779
2812.442383,	1209.380249
2811.070312,	1340.421997
2809.697266,	1433.418213
2808.325195,	1388.244263
2806.952148,	1196.349365
2805.579102,	1077.021484
2804.206055,	1059.554077
2802.832031,	1067.973267
2801.458008,	1069.489136
2800.083984,	1043.410034
2798.709961,	1141.491211
2797.334961,	1106.788208
2795.959961,	1118.636963
2794.584961,	1071.888916
2793.208984,	1092.35437
2791.833008,	1055.965454
2790.457031,	993.756409
2789.081055,	1003.893372
2787.704102,	993.367004
2786.327148,	965.63208
2784.950195,	1087.629028
2783.572266,	1140.754272
2782.195312,	1329.759033
2780.817383,	1649.403564
2779.438477,	1748.81604
2778.060547,	1382.273804
2776.681641,	1045.09668
2775.302734,	915.99884
2773.922852,	912.382751
2772.543945,	912.203857
2771.164062,	887.979126
2769.783203,	937.604492
2768.40332,	952.872559
2767.022461,	954.402222
2765.641602,	954.214966
2764.259766,	926.57373
2762.878906,	972.711548
2761.49707,	912.488586
2760.115234,	932.887939
2758.732422,	889.841614
2757.349609,	927.379272
2755.966797,	904.917053
2754.583984,	882.463684
2753.201172,	890.856384
2751.817383,	911.235718
2750.433594,	837.418762
2749.048828,	861.224792
2747.664062,	914.122742
2746.279297,	893.405212
2744.894531,	937.720154
2743.509766,	879.367676
2742.124023,	877.484497
2740.738281,	824.29718
2739.351562,	837.813843
2737.96582,	803.459473
2736.579102,	846.030457
2735.192383,	842.446594
2733.804688,	907.203308
2732.416992,	854.072571
2731.029297,	869.275024
2729.641602,	911.791016
2728.25293,	908.19751
2726.864258,	880.710144
2725.475586,	848.114197
2724.086914,	824.061584
2722.697266,	822.193787
2721.307617,	837.381287
2719.917969,	825.280762
2718.527344,	802.956177
2717.136719,	819.842834
2715.746094,	870.805176
2714.355469,	848.48468
2712.963867,	878.979858
2711.572266,	878.806946
2710.180664,	851.389587
2708.788086,	837.602539
2707.396484,	796.587097
2706.003906,	818.553406
2704.610352,	794.572205
2703.216797,	763.795959
2701.824219,	824.873291
2700.429688,	838.314453
2699.036133,	965.656921
2697.641602,	939.970337
2696.24707,	921.091553
2694.852539,	987.174988
2693.457031,	942.812744
2692.061523,	861.1026
2690.666016,	835.461609
2689.270508,	801.341919
2687.874023,	852.106812
2686.477539,	789.146667
2685.080078,	828.016541
2683.683594,	785.442932
2682.286133,	842.955139
2680.888672,	869.921082
2679.490234,	849.404663
2678.092773,	866.18811
2676.694336,	854.154114
2675.294922,	869.235535
2673.896484,	838.57074
2672.49707,	814.692932
2671.097656,	785.744324
2669.697266,	797.440979
2668.297852,	770.199768
2666.897461,	803.896179
2665.49707,	793.585205
2664.095703,	866.173767
2662.694336,	844.014526
2661.292969,	835.3927
2659.891602,	858.898315
2658.489258,	872.252197
2657.086914,	812.927429
2655.68457,	782.351624
2654.28125,	844.705444
2652.87793,	807.379089
2651.474609,	825.795959
2650.071289,	834.075012
2648.666992,	825.470032
2647.262695,	823.619324
2645.858398,	843.705688
2644.454102,	880.654846
2643.048828,	853.493103
2641.643555,	853.324585
2640.237305,	843.039612
2638.832031,	836.130127
2637.425781,	743.267273
2636.019531,	758.286194
2634.612305,	773.299194
2633.205078,	789.990601
2631.797852,	813.411682
2630.390625,	789.678528
2628.982422,	853.49231
2627.574219,	838.175903
2626.166016,	844.741333
2624.757812,	874.85791
2623.348633,	841.043274
2621.939453,	835.831787
2620.529297,	791.949646
2619.120117,	815.328369
2617.709961,	837.017029
2616.299805,	791.480042
2614.888672,	819.885132
2613.477539,	796.206421
2612.066406,	767.498657
2610.655273,	849.62262
2609.243164,	896.459961
2607.831055,	877.819885
2606.418945,	815.55658
2605.006836,	837.206238
2603.59375,	832.008301
2602.180664,	823.458191
2600.767578,	764.608215
2599.353516,	737.63385
2597.939453,	814.588928
2596.525391,	739.0177
2595.110352,	792.485718
2593.696289,	819.130676
2592.280273,	842.415466
2590.865234,	850.620972
2589.449219,	852.126709
2588.033203,	835.220093
2586.617188,	799.91217
2585.201172,	813.138733
2583.78418,	796.249756
2582.367188,	774.350098
2580.950195,	760.819641
2579.532227,	780.73053
2578.114258,	803.97644
2576.696289,	875.676086
2575.277344,	850.440491
2573.858398,	843.590088
2572.439453,	779.957458
2571.020508,	851.604858
2569.600586,	799.682129
2568.180664,	811.207703
2566.760742,	827.735168
2565.339844,	809.217651
2563.919922,	805.720947
2562.499023,	757.194153
2561.077148,	820.408936
2559.655273,	826.914978
2558.233398,	856.754028
2556.811523,	833.253052
2555.389648,	874.742188
2553.966797,	827.925049
2552.543945,	806.109131
2551.120117,	799.288452
2549.697266,	785.811096
2548.273438,	759.022766
2546.848633,	778.842529
2545.424805,	782.015686
2544,	793.505249
2542.575195,	816.632568
2541.149414,	821.459106
2539.723633,	864.522217
2538.297852,	846.066223
2536.87207,	834.265137
2535.445312,	864.007446
2534.019531,	812.337952
2532.591797,	795.567749
2531.165039,	770.501343
2529.737305,	798.572266
2528.30957,	821.652344
2526.881836,	857.999756
2525.453125,	869.444031
2524.024414,	856
2522.595703,	811.048157
2521.166016,	865.609436
2519.737305,	827.305176
2518.306641,	827.140747
2516.876953,	797.145569
2515.446289,	805.271851
2514.015625,	806.768372
2512.584961,	829.795959
2511.154297,	816.383423
2509.722656,	759.929993
2508.291016,	811.092957
2506.858398,	853.960693
2505.426758,	862.064087
2503.994141,	827.152222
2502.560547,	815.409912
2501.12793,	846.667053
2499.694336,	818.392212
2498.260742,	816.576477
2496.826172,	796.582092
2495.391602,	860.864502
2493.957031,	786.353149
2492.522461,	781.241638
2491.086914,	850.442688
2489.651367,	906.40802
2488.21582,	899.624878
2486.780273,	866.438599
2485.34375,	810.1651
2483.907227,	824.851135
2482.469727,	839.531311
2481.033203,	832.767944
2479.595703,	799.627808
2478.157227,	768.149231
2476.719727,	842.158936
2475.28125,	789.263794
2473.842773,	876.419006
2472.40332,	843.302917
2470.964844,	841.48822
2469.525391,	861.077637
2468.084961,	795.062378
2466.645508,	831.110779
2465.205078,	789.809265
2463.763672,	774.845947
2462.323242,	753.309387
2460.881836,	753.159241
2459.44043,	771.094482
2457.999023,	769.296997
2456.556641,	793.795654
2455.114258,	791.994263
2453.671875,	836.192322
2452.228516,	844.238037
2450.785156,	784.951965
2449.341797,	832.408569
2447.898438,	773.148376
2446.454102,	779.558899
2445.009766,	802.375305
2443.56543,	785.809998
2442.120117,	806.975769
2440.674805,	751.059265
2439.229492,	798.456055
2437.783203,	768.790894
2436.337891,	830.915161
2434.890625,	878.267517
2433.444336,	842.051147
2431.99707,	802.573364
2430.549805,	792.587708
2429.102539,	761.321716
2427.654297,	775.902039
2426.207031,	752.834717
2424.757812,	739.594238
2423.30957,	803.248352
2421.860352,	812.901672
2420.411133,	830.727478
2418.961914,	842.006287
2417.511719,	854.915222
2416.061523,	861.281677
2414.611328,	813.72406
2413.160156,	829.898071
2411.708984,	801.965637
2410.257812,	767.512268
2408.806641,	788.583679
2407.355469,	811.278992
2405.902344,	819.276978
2404.449219,	820.744934
2402.998047,	809.161255
2401.544922,	807.368408
2400.089844,	825.144958
2398.636719,	826.610352
2397.183594,	826.445068
2395.728516,	767.60907
2394.275391,	795.15564
2392.820312,	737.978394
2391.365234,	729.686951
2389.910156,	737.683167
2388.453125,	757.072998
2386.998047,	786.22168
2385.541016,	825.123474
2384.083984,	829.839783
2382.628906,	753.213623
2381.169922,	783.966064
2379.712891,	749.65979
2378.255859,	760.890625
2376.796875,	801.376038
2375.339844,	778.463013
2373.880859,	792.930908
2372.421875,	771.653198
2370.962891,	790.989197
2369.503906,	818.436829
2368.042969,	815.025757
2366.583984,	806.746399
2365.123047,	801.716064
2363.662109,	808.045837
2362.201172,	767.327515
2360.740234,	734.735168
2359.279297,	815.668274
2357.816406,	755.517456
2356.355469,	742.398376
2354.892578,	760.076538
2353.429688,	776.127319
2351.966797,	801.891479
2350.503906,	814.687988
2349.041016,	808.047363
2347.576172,	773.886169
2346.111328,	793.155212
2344.648438,	805.943054
2343.183594,	747.532166
2341.71875,	736.058289
2340.251953,	777.962708
2338.787109,	745.465454
2337.320312,	742.082458
2335.855469,	783.960327
2334.388672,	808.044373
2332.921875,	824.039917
2331.455078,	807.720154
2329.986328,	793.022034
2328.519531,	812.240417
2327.050781,	734.582947
2325.583984,	797.387146
2324.115234,	766.564514
2322.646484,	772.864624
2321.175781,	761.417236
2319.707031,	770.941467
2318.236328,	744.986267
2316.767578,	762.570923
2315.296875,	813.997803
2313.826172,	820.280579
2312.355469,	808.837219
2310.884766,	749.071228
2309.412109,	826.228699
2307.941406,	732.667725
2306.46875,	775.98877
2304.996094,	764.565613
2303.523438,	791.769836
2302.050781,	769.085266
2300.578125,	793.060303
2299.103516,	763.951172
2297.628906,	802.389526
2296.15625,	826.343323
2294.681641,	818.140442
2293.207031,	785.835449
2291.730469,	723.016052
2290.255859,	748.572754
2288.78125,	724.331421
2287.304688,	753.088928
2285.828125,	765.780762
2284.351562,	778.467407
2282.875,	805.591858
2281.398438,	776.549805
2279.919922,	819.704834
2278.441406,	793.87915
2276.964844,	793.719421
2275.486328,	751.877747
2274.007812,	770.960388
2272.529297,	753.177673
2271.048828,	749.821716
2269.570312,	764.087524
2268.089844,	808.776794
2266.609375,	768.583557
2265.128906,	840.469055
2263.648438,	797.084412
2262.167969,	811.326111
2260.685547,	791.963623
2259.205078,	801.401733
2257.722656,	758.059753
2256.240234,	756.308044
2254.757812,	722.584351
2253.275391,	768.789917
2251.791016,	768.63501
2250.308594,	766.882507
2248.824219,	757.14386
2247.341797,	795.319946
2245.857422,	878.188354
2244.371094,	801.384949
2242.886719,	820.37616
2241.402344,	785.104492
2239.916016,	837.595032
2238.429688,	821.47522
2236.945312,	795.793152
2235.458984,	774.904785
2233.970703,	795.472229
2232.484375,	820.812805
2230.996094,	847.736572
2229.509766,	892.174316
2228.021484,	802.794922
2226.533203,	809.003052
2225.044922,	827.946289
2223.556641,	797.533447
2222.066406,	795.780945
2220.578125,	773.343018
2219.087891,	806.596252
2217.597656,	812.795837
2216.107422,	791.958191
2214.617188,	831.547241
2213.126953,	756.666504
2211.634766,	886.837524
2210.142578,	848.522644
2208.652344,	851.528625
2207.160156,	825.943054
2205.666016,	782.899414
2204.173828,	833.548035
2202.681641,	801.631836
2201.1875,	814.166504
2199.693359,	764.812805
2198.201172,	788.454712
2196.707031,	864.428589
2195.210938,	867.425476
2193.716797,	824.442566
2192.220703,	860.734314
2190.726562,	841.54248
2189.230469,	819.18927
2187.734375,	814.271118
2186.238281,	806.187195
2184.742188,	782.271057
2183.244141,	812.194153
2181.748047,	834.190613
2180.25,	846.682556
2178.751953,	865.498535
2177.253906,	846.340149
2175.755859,	816.118103
2174.255859,	857.066956
2172.757812,	793.654175
2171.257812,	815.622925
2169.757812,	791.752747
2168.257812,	807.392761
2166.757812,	755.099121
2165.257812,	754.946289
2163.755859,	786.374817
2162.255859,	813.054321
2160.753906,	836.566162
2159.251953,	820.615723
2157.75,	810.982849
2156.248047,	779.269287
2154.744141,	793.305847
2153.242188,	725.341553
2151.738281,	739.38324
2150.234375,	777.062073
2148.730469,	787.935791
2147.226562,	783.049561
2145.722656,	773.439514
2144.216797,	779.582458
2142.712891,	757.380188
2141.207031,	791.860779
2139.701172,	815.309692
2138.195312,	766.361694
2136.689453,	759.913086
2135.181641,	696.83905
2133.675781,	695.125122
2132.167969,	704.418396
2130.660156,	737.288513
2129.152344,	749.71283
2127.644531,	810.845642
2126.134766,	816.965576
2124.626953,	736.690674
2123.117188,	750.675293
2121.607422,	703.419067
2120.097656,	690.717896
2118.587891,	707.842224
2117.078125,	704.560242
2115.566406,	702.84845
2114.056641,	699.568787
2112.544922,	708.836121
2111.033203,	744.754089
2109.521484,	766.549133
2108.009766,	703.70282
2106.496094,	733.332031
2104.984375,	700.283936
2103.470703,	718.9375
2101.957031,	679.641663
2100.443359,	698.291809
2098.929688,	676.234985
2097.416016,	680.792725
2095.900391,	694.737
2094.386719,	747.785645
2092.871094,	747.633789
2091.355469,	747.481873
2089.839844,	728.568604
2088.322266,	722.16803
2086.806641,	723.584106
2085.289062,	695.312073
2083.773438,	713.916992
2082.255859,	705.962524
2080.738281,	718.311462
2079.21875,	707.236816
2077.701172,	711.775757
2076.181641,	736.600586
2074.664062,	733.330261
2073.144531,	705.101868
2071.625,	731.472412
2070.105469,	739.1203
2068.583984,	699.994751
2067.064453,	706.087158
2065.542969,	704.385132
2064.021484,	707.357971
2062.5,	682.290222
2060.978516,	756.907715
2059.457031,	672.669922
2057.933594,	727.020691
2056.412109,	709.751526
2054.888672,	703.382446
2053.365234,	729.688538
2051.841797,	673.541199
2050.318359,	702.953003
2048.792969,	674.821899
2047.269531,	668.466187
2045.744141,	666.775818
2044.21875,	691.503113
2042.693359,	705.344849
2041.167969,	725.394226
2039.642578,	753.200256
2038.115234,	721.993347
2036.589844,	717.189209
2035.0625,	713.939026
2033.535156,	687.414246
2032.007812,	653.143188
2030.478516,	691.787354
2028.951172,	677.689392
2027.421875,	665.147583
2025.892578,	702.215515
2024.363281,	694.323181
2022.833984,	709.676819
2021.304688,	703.335327
2019.775391,	727.973999
2018.244141,	735.56842
2016.712891,	702.905151
2015.181641,	707.405579
2013.650391,	651.547058
2012.119141,	643.677673
2010.587891,	651.281311
2009.054688,	678.988525
2007.521484,	672.664551
2005.988281,	700.356018
2004.455078,	715.670349
2002.921875,	681.52533
2001.388672,	684.47644
1999.853516,	671.978516
1998.320312,	634.774231
1996.785156,	651.630249
1995.25,	691.636902
1993.714844,	657.538269
1992.177734,	677.465637
1990.642578,	637.21228
1989.105469,	646.337585
1987.570312,	724.860657
1986.033203,	690.789917
1984.494141,	669.06604
1982.957031,	642.727051
1981.419922,	641.054749
1979.880859,	603.947388
1978.341797,	631.550598
1976.802734,	666.842773
1975.263672,	632.832275
1973.724609,	677.346191
1972.185547,	694.137939
1970.644531,	690.918457
1969.103516,	704.623535
1967.564453,	626.033081
1966.023438,	581.307434
1964.480469,	658.065369
1962.939453,	599.516357
1961.396484,	607.078308
1959.855469,	689.930176
1958.3125,	634.483032
1956.769531,	626.673401
1955.226562,	644.973022
1953.681641,	666.335754
1952.138672,	609.403625
1950.59375,	687.549011
1949.048828,	633.704529
1947.503906,	668.858704
1945.958984,	634.978943
1944.414062,	590.378906
1942.867188,	639.318481
1941.322266,	642.253235
1939.775391,	606.874023
1938.228516,	622.071716
1936.681641,	640.326904
1935.134766,	635.601074
1933.585938,	667.627258
1932.039062,	636.871704
1930.490234,	606.128723
1928.941406,	566.21637
1927.392578,	581.400391
1925.841797,	562.925049
1924.292969,	593.397156
1922.742188,	643.734558
1921.193359,	642.073914
1919.642578,	680.153198
1918.091797,	632.642029
1916.539062,	643.207031
1914.988281,	659.877563
1913.4375,	676.541321
1911.884766,	552.726257
1910.332031,	613.675171
1908.779297,	593.708191
1907.226562,	572.223389
1905.671875,	622.451355
1904.119141,	620.798401
1902.564453,	608.47113
1901.009766,	637.315186
1899.455078,	621.940796
1897.900391,	623.33728
1896.345703,	612.543213
1894.789062,	618.511169
1893.232422,	587.921997
1891.677734,	604.552124
1890.121094,	554.185913
1888.5625,	621.047913
1887.005859,	587.439453
1885.447266,	623.83606
1883.890625,	641.96283
1882.332031,	650.956604
1880.773438,	623.451843
1879.214844,	640.047119
1877.65625,	601.915955
1876.095703,	572.918457
1874.535156,	606.226807
1872.976562,	622.811829
1871.416016,	578.640381
1869.853516,	636.221802
1868.292969,	654.308472
1866.732422,	591.944031
1865.169922,	605.479797
1863.607422,	609.906921
1862.044922,	621.916504
1860.482422,	618.755554
1858.919922,	570.108459
1857.355469,	601.825867
1855.792969,	635.045837
1854.228516,	609.154968
1852.664062,	583.274719
1851.099609,	649.801025
1849.535156,	623.922974
1847.96875,	588.97113
1846.404297,	605.501282
1844.837891,	622.024536
1843.271484,	596.17334
1841.705078,	579.409668
1840.138672,	591.390503
1838.570312,	582.195618
1837.001953,	598.706543
1835.435547,	606.141174
1833.867188,	599.971375
1832.298828,	631.577881
1830.728516,	628.426575
1829.160156,	617.724854
1827.589844,	570.787109
1826.021484,	569.159851
1824.451172,	578.098999
1822.880859,	594.579895
1821.308594,	595.966187
1819.738281,	598.860352
1818.166016,	624.37561
1816.595703,	628.770508
1815.023438,	601.505371
1813.451172,	592.338074
1811.876953,	611.805847
1810.304688,	617.706177
1808.730469,	581.427917
1807.158203,	590.343933
1805.583984,	555.591858
1804.009766,	581.06842
1802.433594,	605.029419
1800.859375,	610.923584
1799.283203,	580.709045
1797.708984,	637.745789
1796.132812,	606.034302
1794.556641,	607.412781
1792.978516,	562.191895
1791.402344,	590.630615
1789.824219,	579.990784
1788.248047,	569.355286
1786.669922,	596.272888
1785.091797,	608.162903
1783.511719,	572.005554
1781.933594,	583.89563
1780.353516,	571.76947
1778.775391,	633.167725
1777.195312,	577.533813
1775.615234,	562.416748
1774.033203,	569.797974
1772.453125,	628.147522
1770.871094,	589.047729
1769.291016,	578.43634
1767.708984,	593.299133
1766.126953,	605.159973
1764.542969,	631.991943
1762.960938,	598.920776
1761.376953,	556.881226
1759.794922,	625.613586
1758.210938,	591.067688
1756.626953,	577.480957
1755.041016,	539.967773
1753.457031,	611.637573
1751.871094,	589.084106
1750.287109,	600.920959
1748.701172,	608.269287
1747.115234,	609.637756
1745.527344,	622.956787
1743.941406,	604.904907
1742.353516,	591.34021
1740.767578,	598.6828
1739.179688,	573.183655
1737.591797,	571.572754
1736.001953,	623.676208
1734.414062,	578.794983
1732.824219,	568.235168
1731.234375,	608.37793
1729.646484,	594.834717
1728.054688,	612.597656
1726.464844,	619.921875
1724.875,	519.971008
1723.283203,	574.977844
1721.691406,	577.837341
1720.099609,	598.563171
1718.507812,	580.575378
1716.916016,	623.617249
1715.322266,	602.655579
1713.730469,	599.555298
1712.136719,	596.456238
1710.542969,	623.100769
1708.949219,	628.918884
1707.355469,	600.545166
1705.759766,	572.183105
1704.164062,	576.522217
1702.570312,	600.171936
1700.974609,	545.092712
1699.378906,	577.648804
1697.78125,	599.798828
1696.185547,	623.424011
1694.587891,	608.454407
1692.990234,	605.360779
1691.392578,	655.67157
1689.794922,	559.133301
1688.197266,	539.740906
1686.597656,	561.866394
1684.998047,	532.106079
1683.400391,	531.995728
1681.800781,	554.108948
1680.199219,	601.394592
1678.599609,	587.941162
1677,	586.338501
1675.398438,	550.688538
1673.796875,	565.374634
1672.195312,	554.89917
1670.59375,	541.469177
1668.990234,	569.460022
1667.388672,	538.286804
1665.785156,	581.051636
1664.181641,	577.974609
1662.578125,	598.545044
1660.974609,	650.136108
1659.369141,	576.137329
1657.765625,	578.971619
1656.160156,	562.608093
1654.554688,	556.585815
1652.949219,	552.041992
1651.34375,	538.64563
1649.736328,	562.140686
1648.130859,	538.421814
1646.523438,	502.914215
1644.916016,	611.923828
1643.308594,	552.828308
1641.701172,	577.769714
1640.091797,	529.020935
1638.484375,	545.117126
1636.875,	552.368713
1635.265625,	558.144592
1633.65625,	550.666626
1632.044922,	553.496277
1630.435547,	579.872803
1628.824219,	628.31012
1627.212891,	557.564392
1625.601562,	566.273438
1623.990234,	579.390442
1622.378906,	546.924866
1620.765625,	552.690735
1619.154297,	526.12262
1617.541016,	540.706238
1615.927734,	552.345764
1614.314453,	497.888916
1612.699219,	581.483704
1611.085938,	547.596619
1609.470703,	543.079285
1607.855469,	594.32782
1606.240234,	564.860657
1604.625,	544.206909
1603.007812,	551.426392
1601.392578,	504.391388
1599.775391,	518.945801
1598.158203,	546.684937
1596.541016,	571.48175
1594.923828,	559.642456
1593.304688,	599.073486
1591.6875,	585.768799
1590.068359,	578.326172
1588.449219,	581.13324
1586.830078,	564.913513
1585.210938,	547.237366
1583.589844,	567.603821
1581.96875,	568.948059
1580.349609,	530.809998
1578.728516,	584.792603
1577.105469,	603.672485
1575.484375,	624.005737
1573.863281,	599.037476
1572.240234,	610.598633
1570.617188,	571.038879
1568.994141,	604.503235
1567.371094,	604.377136
1565.746094,	594.034241
1564.123047,	611.421143
1562.498047,	640.472229
1560.873047,	621.376343
1559.248047,	589.163452
1557.623047,	605.078735
1555.998047,	603.49469
1554.371094,	616.485413
1552.744141,	577.014771
1551.117188,	565.239807
1549.490234,	556.382812
1547.863281,	578.109497
1546.234375,	570.70929
1544.607422,	567.678955
1542.978516,	638.869202
1541.349609,	616.911011
1539.720703,	587.68866
1538.089844,	591.928955
1536.460938,	581.62677
1534.830078,	568.421387
1533.199219,	568.302551
1531.568359,	533.308044
1529.9375,	568.065002
1528.306641,	581.019165
1526.673828,	604.133606
1525.041016,	554.641296
1523.408203,	593.719543
1521.775391,	547.15271
1520.142578,	576.058838
1518.509766,	571.586182
1516.875,	578.71875
1515.240234,	524.943237
1513.605469,	527.733032
1511.970703,	540.668213
1510.335938,	566.640869
1508.699219,	534.646362
1507.064453,	553.366333
1505.427734,	535.870911
1503.791016,	554.582703
1502.154297,	519.721924
1500.515625,	529.744873
1498.878906,	512.268921
1497.240234,	503.480927
1495.601562,	514.947327
1493.962891,	494.593018
1492.324219,	495.935303
1490.683594,	517.515015
1489.044922,	533.304565
1487.404297,	520.188171
1485.763672,	533.081116
1484.123047,	505.526581
1482.482422,	486.647888
1480.839844,	459.114532
1479.199219,	522.530273
1477.556641,	497.887177
1475.914062,	500.668518
1474.271484,	504.891205
1472.626953,	540.841431
1470.984375,	507.563385
1469.339844,	540.614685
1467.695312,	528.970581
1466.050781,	533.1828
1464.40625,	499.934113
1462.759766,	483.984497
1461.115234,	519.886169
1459.46875,	511.138153
1457.822266,	500.954254
1456.175781,	485.0177
1454.529297,	553.98407
1452.880859,	542.358887
1451.232422,	514.917053
1449.585938,	516.247009
1447.9375,	547.768311
1446.287109,	497.343933
1444.638672,	534.60437
1442.990234,	507.19278
1441.339844,	502.776764
1439.689453,	548.6297
1438.039062,	575.79657
1436.388672,	569.933228
1434.736328,	509.531006
1433.085938,	532.383911
1431.433594,	517.92511
1429.78125,	509.20993
1428.128906,	516.273376
1426.474609,	527.635254
1424.822266,	530.391357
1423.167969,	557.510437
1421.513672,	557.39325
1419.859375,	577.332336
1418.205078,	577.210938
1416.550781,	575.657593
1414.894531,	556.924683
1413.238281,	548.219299
1411.583984,	523.775635
1409.925781,	515.080811
1408.269531,	553.595398
1406.613281,	544.897888
1404.955078,	571.950928
1403.296875,	541.809509
1401.638672,	543.124756
1399.980469,	533.007629
1398.322266,	571.469666
1396.662109,	634.197876
1395.003906,	681.190796
1393.34375,	830.963501
1391.683594,	800.811646
1390.021484,	572.295654
1388.361328,	535.076538
1386.699219,	523.551331
1385.039062,	529.146179
1383.376953,	511.923096
1381.712891,	483.30188
1380.050781,	468.946411
1378.388672,	447.471588
1376.724609,	464.474548
1375.060547,	424.491577
1373.396484,	448.612976
1371.732422,	447.094604
1370.066406,	448.42395
1368.402344,	435.52002
1366.736328,	458.195709
1365.070312,	421.109772
1363.404297,	439.51178
1361.738281,	428.042572
1360.070312,	429.374084
1358.404297,	366.738922
1356.736328,	436.298889
1355.068359,	380.792969
1353.400391,	417.647461
1351.730469,	414.718811
1350.0625,	427.411072
1348.392578,	427.320923
1346.722656,	394.585205
1345.052734,	383.149384
1343.382812,	388.743622
1341.710938,	377.313812
1340.041016,	388.579559
1338.369141,	368.647308
1336.697266,	411.096741
1335.025391,	420.930878
1333.351562,	401.004333
1331.679688,	398.086304
1330.005859,	390.920349
1328.332031,	390.837799
1326.658203,	353.944977
1324.984375,	377.933411
1323.308594,	383.514313
1321.634766,	372.114227
1319.958984,	418.716888
1318.283203,	398.82843
1316.607422,	391.674225
1314.929688,	394.418823
1313.253906,	371.721252
1311.576172,	377.295044
1309.898438,	372.976929
1308.220703,	379.960541
1306.542969,	377.055817
1304.863281,	367.092834
1303.185547,	365.603607
1301.505859,	364.115021
1299.826172,	404.957001
1298.146484,	426.031891
1296.466797,	397.733704
1294.785156,	408.93042
1293.103516,	410.253723
1291.421875,	360.834137
1289.740234,	388.941986
1288.058594,	380.406219
1286.376953,	370.465424
1284.693359,	415.453094
1283.009766,	411.141113
1281.326172,	398.384613
1279.642578,	406.744812
1277.958984,	399.623077
1276.273438,	362.960999
1274.587891,	353.038452
1272.904297,	368.43222
1271.216797,	393.66098
1269.53125,	385.143799
1267.845703,	387.872894
1266.158203,	407.461243
1264.470703,	394.732269
1262.783203,	393.244202
1261.095703,	381.927704
1259.408203,	401.500641
1257.71875,	357.905487
1256.029297,	377.475159
1254.341797,	370.380371
1252.650391,	374.509827
1250.960938,	378.637543
1249.271484,	412.206787
1247.580078,	371.46814
1245.888672,	364.38205
1244.197266,	383.921173
1242.505859,	389.443237
1240.814453,	340.340424
1239.121094,	361.27243
1237.427734,	347.195953
1235.734375,	376.515717
1234.041016,	358.243774
1232.347656,	351.172272
1230.652344,	377.674896
1228.958984,	359.414246
1227.263672,	359.337952
1225.568359,	380.230255
1223.873047,	361.980621
1222.175781,	367.493042
1220.480469,	354.841858
1218.783203,	367.336975
1217.085938,	368.655396
1215.388672,	354.615845
1213.689453,	365.707184
1211.992188,	380.980347
1210.292969,	366.947052
1208.59375,	369.658966
1206.894531,	348.660797
1205.195312,	344.403656
1203.494141,	326.207825
1201.794922,	347.0448
1200.09375,	362.299103
1198.392578,	359.43576
1196.691406,	367.716553
1194.988281,	343.964691
1193.287109,	361.991119
1191.583984,	356.346222
1189.880859,	347.92038
1188.177734,	346.454987
1186.474609,	361.683289
1184.769531,	353.261597
1183.066406,	379.605927
1181.361328,	376.744751
1179.65625,	383.614136
1177.951172,	375.194855
1176.244141,	348.718018
1174.539062,	348.643829
1172.832031,	331.904938
1171.125,	349.88385
1169.417969,	363.690704
1167.708984,	344.183563
1166.001953,	355.210602
1164.292969,	324.61557
1162.583984,	353.672424
1160.875,	385.490173
1159.166016,	388.180786
1157.455078,	349.2883
1155.746094,	368.614685
1154.035156,	340.82666
1152.324219,	357.37619
1150.613281,	304.674469
1148.900391,	364.146881
1147.189453,	328.077637
1145.476562,	351.535675
1143.763672,	354.22818
1142.050781,	350.002441
1140.337891,	374.823883
1138.623047,	365.06424
1136.908203,	330.423309
1135.193359,	320.677246
1133.478516,	344.101746
1131.763672,	324.685394
1130.048828,	360.531128
1128.332031,	350.786865
1126.615234,	356.235077
1124.898438,	342.354462
1123.181641,	367.12442
1121.464844,	344.968109
1119.746094,	343.514923
1118.027344,	321.373077
1116.308594,	335.094391
1114.589844,	328.129395
1112.871094,	344.600159
1111.150391,	358.307648
1109.431641,	338.941772
1107.710938,	330.604309
1105.990234,	329.156494
1104.267578,	371.770996
1102.546875,	344.158905
1100.824219,	349.590759
1099.103516,	315.114899
1097.380859,	316.423309
1095.65625,	331.485779
1093.933594,	360.293427
1092.208984,	364.341064
1090.486328,	342.269958
1088.761719,	338.073944
1087.035156,	327.009766
1085.310547,	329.687256
1083.585938,	321.376343
1081.859375,	310.322754
1080.132812,	300.646698
1078.40625,	349.993225
1076.679688,	323.846039
1074.951172,	363.562897
1073.222656,	353.883636
1071.496094,	363.407379
1069.767578,	346.876984
1068.037109,	346.802765
1066.308594,	287.798401
1064.578125,	358.985962
1062.849609,	336.991028
1061.119141,	376.636963
1059.386719,	391.618622
1057.65625,	418.914856
1055.923828,	395.557098
1054.193359,	396.840851
1052.460938,	369.393402
1050.728516,	380.256958
1048.994141,	380.175507
1047.261719,	410.173492
1045.527344,	404.617828
1043.792969,	388.131256
1042.058594,	389.414459
1040.324219,	375.670288
1038.587891,	383.784485
1036.853516,	387.798737
1035.117188,	364.507294
1033.380859,	349.415253
1031.644531,	362.98645
1029.90625,	369.730255
1028.169922,	384.655273
1026.431641,	364.116821
1024.693359,	402.215088
1022.955078,	392.586792
1021.214844,	377.5112
1019.476562,	376.067688
1017.736328,	348.741577
1015.996094,	355.476685
1014.255859,	371.740662
1012.515625,	378.467896
1010.773438,	367.497864
1009.03125,	375.583893
1007.291016,	380.945374
1005.546875,	365.901123
1003.804688,	382.141815
1002.0625,	350.787994
1000.318359,	341.197235
998.574219,	345.201141
996.830078,	332.898132
995.085938,	339.619019
993.339844,	374.858887
991.595703,	404.652039
989.849609,	369.267487
988.103516,	380.046661
986.357422,	369.108856
984.609375,	377.169922
982.863281,	349.960205
981.115234,	378.364014
979.367188,	345.742279
977.619141,	371.423615
975.871094,	355.080566
974.121094,	342.809418
972.371094,	388.795105
970.621094,	368.395569
968.871094,	319.568604
967.121094,	354.699036
965.369141,	354.622772
963.619141,	309.889893
961.867188,	342.293793
960.115234,	355.746674
958.363281,	343.498901
956.609375,	348.833282
954.855469,	340.647583
953.103516,	343.277252
951.347656,	328.34024
949.59375,	355.287659
947.839844,	326.848328
946.083984,	321.376678
944.328125,	311.8573
942.572266,	311.790161
940.816406,	311.723022
939.060547,	319.750854
937.302734,	314.28653
935.544922,	298.035889
933.787109,	299.320007
932.029297,	260.163605
930.271484,	270.889221
928.511719,	258.704102
926.751953,	272.119629
924.994141,	285.529358
923.232422,	285.467834
921.472656,	267.904999
919.710938,	285.344818
917.951172,	296.048706
916.189453,	261.004852
914.427734,	263.638794
912.664062,	264.926758
910.902344,	266.214142
909.138672,	279.598999
907.375,	276.85083
905.611328,	283.509369
903.847656,	270.014648
902.082031,	273.985596
900.318359,	290.039825
898.552734,	272.524902
896.787109,	261.728516
895.021484,	254.962509
893.253906,	249.541016
891.486328,	262.900452
889.720703,	244.069153
887.951172,	292.283447
886.183594,	321.71048
884.416016,	262.673492
882.646484,	266.636444
880.876953,	246.48497
879.107422,	250.449646
877.337891,	265.124725
875.568359,	258.37381
873.796875,	281.071411
872.025391,	271.643677
870.253906,	287.639252
868.482422,	274.201447
866.710938,	278.154022
864.9375,	248.68013
863.164062,	260.656708
861.390625,	269.955231
859.617188,	263.216278
857.84375,	253.808533
856.068359,	259.095825
854.292969,	252.363525
852.517578,	244.299149
850.742188,	266.935852
848.966797,	250.865448
847.189453,	253.479385
845.414062,	237.418793
843.636719,	256.036774
841.859375,	238.649323
840.080078,	254.593048
838.302734,	259.868591
836.523438,	229.167831
834.744141,	278.405304
832.964844,	261.031708
831.185547,	246.328629
829.404297,	228.969467
827.623047,	242.229202
825.841797,	247.499313
824.060547,	244.785019
822.279297,	243.401932
820.496094,	230.051453
818.714844,	259.250366
816.931641,	248.560608
815.148438,	269.769379
813.363281,	253.767426
811.580078,	249.727432
809.794922,	244.361115
808.009766,	276.174438
806.224609,	237.617844
804.439453,	253.492569
802.652344,	232.207245
800.867188,	269.302002
799.080078,	253.327744
797.292969,	255.924881
795.503906,	243.937653
793.716797,	246.535675
791.927734,	253.108063
790.138672,	234.504761
788.349609,	258.296661
786.560547,	251.61908
784.771484,	266.128754
782.980469,	256.80484
781.189453,	280.571198
779.398438,	275.217651
777.607422,	252.669067
775.814453,	242.033524
774.021484,	228.757965
772.230469,	233.996368
770.4375,	247.162827
768.642578,	240.501953
766.849609,	237.807434
765.054688,	256.247894
763.259766,	225.818939
761.464844,	248.214844
759.669922,	242.880905
757.873047,	221.712646
756.078125,	245.414246
754.28125,	249.318344
752.484375,	220.249298
750.6875,	230.75
748.888672,	257.065552
747.089844,	218.78772
745.292969,	241.141251
743.492188,	230.549423
741.693359,	200.205109
739.894531,	238.350296
738.09375,	211.967148
736.292969,	221.134995
734.492188,	219.770905
732.691406,	215.775986
730.888672,	227.567841
729.087891,	230.14859
727.285156,	219.579727
725.482422,	228.733887
723.677734,	216.855621
721.875,	202.354538
720.070312,	219.388641
718.265625,	231.161667
716.460938,	248.182068
714.65625,	233.686722
712.851562,	261.199615
711.044922,	242.770889
709.238281,	229.598129
707.431641,	230.859818
705.625,	220.318192
703.816406,	207.15889
702.007812,	214.978836
700.201172,	218.863678
698.390625,	217.505722
696.582031,	234.48819
694.773438,	210.862411
692.962891,	221.291809
691.152344,	213.388763
689.341797,	218.577652
687.53125,	223.764252
685.71875,	221.098907
683.90625,	236.746613
682.095703,	207.92543
680.28125,	219.646881
678.46875,	219.598969
676.65625,	245.68811
674.841797,	207.74408
673.027344,	229.905548
671.212891,	219.40741
669.396484,	201.079575
667.582031,	207.562836
665.765625,	200.991837
663.949219,	221.825668
662.132812,	211.340683
660.316406,	217.815979
658.498047,	208.640411
656.679688,	203.37999
654.863281,	211.156174
653.042969,	201.988022
651.224609,	214.972549
649.404297,	226.648819
647.585938,	213.576355
645.765625,	248.68399
643.943359,	223.896866
642.123047,	243.369568
640.302734,	195.173569
638.480469,	213.34314
636.658203,	202.8918
634.835938,	210.649292
633.011719,	184.602844
631.189453,	201.459045
629.365234,	222.206238
627.541016,	226.055161
625.716797,	205.223587
623.890625,	215.567505
622.064453,	193.44899
620.240234,	203.790939
618.414062,	182.982391
616.585938,	208.891647
614.759766,	185.496704
612.931641,	204.909561
611.103516,	195.788437
609.275391,	189.263947
607.447266,	185.334381
605.619141,	178.815018
603.789062,	171.003006
601.958984,	202.050232
600.128906,	182.582336
598.298828,	179.95311
596.466797,	185.091064
594.634766,	174.698059
592.804688,	188.891342
590.970703,	174.621536
589.138672,	156.478348
587.306641,	170.66626
585.472656,	180.970016
583.638672,	160.252609
581.804688,	166.677872
579.96875,	200.227966
578.134766,	178.228409
576.298828,	161.403397
574.462891,	184.605011
572.626953,	185.855194
570.791016,	178.072174
568.953125,	167.712372
567.115234,	163.806152
565.277344,	181.823639
563.439453,	162.445068
561.601562,	175.299072
559.761719,	181.70401
557.921875,	194.548141
556.082031,	189.352982
554.242188,	190.599274
552.402344,	203.432953
550.560547,	182.792023
548.71875,	185.325867
546.876953,	185.285187
545.035156,	187.817352
543.191406,	225.074112
541.349609,	216.023697
539.505859,	250.686737
537.662109,	244.205231
535.816406,	239.011566
533.972656,	278.785583
532.126953,	317.25766
530.28125,	472.571533
528.435547,	882.02533
526.589844,	1653.273682
524.742188,	2977.291992
522.894531,	3447.510742
521.046875,	1562.391235
519.199219,	502.728027
517.351562,	301.314087
515.501953,	270.482086
513.652344,	240.945282
511.802734,	202.452042
509.953125,	213.937057
508.103516,	197.239899
506.251953,	206.159988
504.400391,	192.032272
502.548828,	197.109756
500.697266,	204.744308
498.845703,	194.464294
496.992188,	199.537857
495.138672,	199.493958
493.285156,	191.778885
491.431641,	184.067215
489.576172,	159.745392
487.720703,	162.265594
485.865234,	162.229874
484.009766,	177.519577
482.154297,	158.327911
480.296875,	159.569611
478.441406,	162.087021
476.583984,	140.359406
474.724609,	145.431335
472.867188,	181.111404
471.007812,	156.843628
469.150391,	159.35881
467.291016,	164.422058
465.429688,	138.899643
463.570312,	170.719727
461.708984,	147.754654
459.847656,	161.730209
457.986328,	164.240921
456.125,	160.386002
454.263672,	165.441132
452.400391,	146.319489
450.537109,	141.198975
448.673828,	137.352478
446.808594,	142.408188
444.945312,	138.56311
443.080078,	152.512894
441.214844,	160.103195
439.349609,	143.552933
437.484375,	170.193344
435.617188,	153.648132
433.75,	157.422836
431.882812,	130.733658
430.015625,	135.780701
428.148438,	133.213333
426.279297,	148.404938
424.410156,	157.24913
422.541016,	134.39296
420.671875,	133.095703
418.800781,	147.006577
416.929688,	126.701813
415.058594,	133.007507
413.1875,	125.379372
411.316406,	139.279633
409.443359,	132.919357
407.572266,	156.936752
405.699219,	178.412827
403.824219,	220.120346
401.951172,	220.071686
400.076172,	192.204025
398.203125,	203.53952
396.328125,	161.784454
394.451172,	166.803329
392.576172,	164.23967
390.699219,	166.729553
388.822266,	137.647736
386.945312,	161.605621
385.068359,	128.750977
383.189453,	126.198524
381.3125,	135.002548
379.433594,	142.541229
377.552734,	162.688034
375.673828,	157.608551
373.792969,	138.664825
371.914062,	134.853195
370.033203,	141.123489
368.150391,	136.053238
366.269531,	110.833641
364.386719,	127.178627
362.503906,	124.632622
360.621094,	137.191376
358.738281,	130.869202
356.853516,	137.1306
354.970703,	135.842422
353.085938,	129.524704
351.201172,	134.524979
349.314453,	123.182487
347.429688,	126.92524
345.542969,	139.461166
343.65625,	113.051559
341.769531,	130.608398
339.880859,	144.390717
337.994141,	123.018723
336.105469,	125.501465
334.216797,	136.766266
332.326172,	131.718094
330.4375,	106.605278
328.546875,	100.312119
326.65625,	115.333344
324.765625,	107.787682
322.875,	127.812828
320.982422,	102.728691
319.089844,	132.766144
317.197266,	121.466583
315.304688,	123.943527
313.410156,	122.66433
311.517578,	122.637093
309.623047,	110.098656
307.728516,	123.833481
305.832031,	126.307106
303.9375,	130.029907
302.041016,	128.751022
300.144531,	128.722412
298.248047,	132.442184
296.351562,	108.678391
294.453125,	122.392136
292.554688,	109.878716
290.65625,	117.34436
288.757812,	129.79895
286.857422,	112.301041
284.958984,	121.008652
283.058594,	118.487282
281.158203,	124.695717
279.255859,	122.174629
277.355469,	135.85788
275.453125,	123.366417
273.550781,	117.109734
271.648438,	138.258392
269.744141,	165.6241
267.841797,	231.573135
265.9375,	398.316742
264.033203,	512.718689
262.128906,	401.872009
260.222656,	309.733307
258.316406,	292.25351
256.410156,	354.356201
254.503906,	507.175934
252.597656,	943.286316
250.689453,	765.395203
248.783203,	309.319763
246.875,	239.70047
244.964844,	244.613846
243.056641,	347.597046
241.146484,	454.257782
239.236328,	296.566711
237.326172,	184.847672
235.416016,	146.356812
233.503906,	147.564224
231.591797,	128.934952
229.679688,	121.469307
227.767578,	167.292862
225.855469,	221.768494
223.941406,	235.344238
222.027344,	226.623108
220.113281,	205.524841
218.199219,	144.825562
216.283203,	108.904335
214.369141,	97.744583
212.453125,	92.774788
210.537109,	84.097038
208.619141,	95.206276
206.703125,	84.059509
204.785156,	90.220215
202.867188,	97.613785
200.947266,	97.591995
199.029297,	86.454613
197.109375,	93.844048
195.189453,	83.946983
193.269531,	75.288567
191.349609,	87.611382
189.427734,	86.358124
187.505859,	81.40519
185.583984,	77.687592
183.662109,	82.601685
181.740234,	88.746155
179.816406,	76.403221
177.892578,	83.778358
175.96875,	82.52787
174.044922,	81.277939
172.119141,	81.259773
170.193359,	81.241608
168.267578,	81.223442
166.341797,	86.126816
164.414062,	63.965614
162.488281,	63.951309
160.560547,	67.625679
158.632812,	70.069115
156.703125,	61.450386
154.775391,	68.809036
152.845703,	68.79364
150.916016,	56.496418
148.986328,	81.041939
147.054688,	56.471134
145.125,	60.140572
143.193359,	57.672939
141.261719,	53.979603
139.330078,	46.608311
137.396484,	45.371613
135.462891,	49.03941
133.529297,	73.542641
131.595703,	47.792011
129.662109,	71.05938
127.726562,	52.670151
125.791016,	44.08606
123.855469,	46.52486
121.919922,	47.738499
119.982422,	45.28022
118.044922,	52.611164
116.107422,	50.152893
114.169922,	34.243076
112.232422,	44.016945
110.292969,	37.894981
108.353516,	30.553617
106.414062,	28.103024
104.474609,	29.318317
102.533203,	17.098516
100.591797,	20.757828
98.650391,	6.103874
