599.40625,	27.195704
597.576172,	32.375839
595.746094,	33.663258
593.916016,	32.361198
592.083984,	32.353878
590.251953,	33.640419
588.419922,	23.284252
586.587891,	40.091583
584.753906,	28.44565
582.921875,	28.439211
581.087891,	33.602367
579.253906,	27.134226
577.417969,	29.711708
575.583984,	29.704977
573.748047,	28.407017
571.912109,	27.109644
570.076172,	33.556713
568.238281,	33.549107
566.402344,	29.671326
564.564453,	30.954363
562.726562,	34.815758
560.888672,	38.6754
559.048828,	32.222187
557.210938,	38.657852
555.371094,	33.495865
553.53125,	29.624231
551.689453,	34.768375
549.849609,	38.622757
548.007812,	30.891186
546.166016,	38.605209
544.324219,	45.029179
542.480469,	37.301411
540.638672,	51.43853
538.794922,	55.283848
536.951172,	59.127415
535.107422,	68.109573
533.261719,	73.233253
531.417969,	93.768623
529.572266,	136.12619
527.726562,	254.215591
525.878906,	699.575562
524.033203,	1931.415771
522.185547,	1055.942383
520.337891,	324.535339
518.490234,	141.070175
516.640625,	97.444466
514.792969,	64.09359
512.943359,	55.107929
511.09375,	49.970219
509.244141,	43.553848
507.392578,	37.1404
505.541016,	33.290695
503.691406,	33.283104
501.837891,	34.55534
499.986328,	39.665596
498.134766,	47.332005
496.28125,	39.647491
494.427734,	46.031738
492.574219,	42.186127
490.71875,	33.229965
488.863281,	38.333508
487.009766,	29.382309
485.154297,	38.315994
483.296875,	29.368883
481.441406,	20.425858
479.583984,	30.631783
477.726562,	29.348747
475.869141,	24.239073
474.011719,	28.059875
472.152344,	34.429241
470.292969,	26.772173
468.433594,	29.315195
466.574219,	38.228458
464.712891,	19.109854
462.853516,	20.379177
460.992188,	22.921324
459.130859,	25.462305
457.267578,	24.183649
455.40625,	27.995705
453.542969,	25.444809
451.679688,	25.438976
449.816406,	17.803202
447.951172,	26.698681
446.087891,	29.234707
444.222656,	26.686436
442.357422,	25.409822
440.490234,	29.214592
438.625,	27.937981
436.757812,	27.931568
434.890625,	29.194483
433.023438,	24.111645
431.154297,	24.106108
429.287109,	20.295218
427.417969,	24.095036
425.548828,	27.893106
423.679688,	29.154274
421.808594,	25.345716
419.9375,	30.407867
418.066406,	24.067362
416.195312,	16.463356
414.324219,	25.322414
412.451172,	26.582418
410.578125,	20.248613
408.705078,	27.835436
406.832031,	24.034163
404.958984,	31.616619
403.083984,	58.161186
401.208984,	51.827381
399.333984,	36.649948
397.457031,	42.959011
395.582031,	39.159485
393.705078,	35.36171
391.828125,	34.090931
389.951172,	27.771395
388.072266,	26.502947
386.193359,	26.496836
384.316406,	20.183411
382.435547,	25.223444
380.556641,	25.217625
378.675781,	34.035938
376.796875,	44.110481
374.916016,	26.460178
373.033203,	25.194353
371.152344,	25.188536
369.269531,	26.441856
367.386719,	25.176903
365.503906,	28.946751
363.621094,	23.907009
361.736328,	23.901484
359.851562,	25.153643
357.966797,	23.890436
356.082031,	28.913315
354.195312,	25.1362
352.310547,	28.899942
350.423828,	20.099657
348.537109,	21.350946
346.648438,	23.8573
344.761719,	28.873205
342.873047,	18.825993
340.984375,	30.114614
339.09375,	20.07176
337.205078,	21.321306
335.314453,	21.316368
333.423828,	25.072269
331.533203,	25.06646
329.642578,	23.807617
327.75,	20.043873
325.857422,	25.049032
323.964844,	25.043224
322.072266,	27.541159
320.177734,	23.780027
318.285156,	22.523222
316.390625,	21.266994
314.494141,	23.763479
312.599609,	26.258801
310.703125,	26.252705
308.806641,	24.996771
306.910156,	22.491869
305.013672,	32.480709
303.115234,	29.975227
301.21875,	26.222229
299.320312,	24.967749
297.419922,	28.706236
295.521484,	29.947371
293.621094,	27.445374
291.720703,	29.933443
289.820312,	32.420357
287.919922,	36.152752
286.017578,	26.173489
284.115234,	34.889862
282.212891,	31.144413
280.310547,	36.11911
278.408203,	29.884716
276.503906,	27.387943
274.599609,	32.360031
272.695312,	31.108166
270.789062,	38.565136
268.884766,	34.824909
266.978516,	46.007904
265.072266,	129.289368
263.164062,	146.6595
261.257812,	99.406982
259.349609,	83.233932
257.441406,	72.036446
255.533203,	52.152153
253.623047,	124.142815
251.714844,	237.057434
249.804688,	127.807411
247.894531,	95.523041
245.982422,	59.532925
244.072266,	73.158798
242.160156,	138.845276
240.248047,	110.306625
238.335938,	54.520866
236.421875,	34.686989
234.507812,	24.770628
232.59375,	33.432529
230.679688,	34.662666
228.765625,	34.654556
226.849609,	47.020184
224.933594,	53.194599
223.017578,	55.655743
221.101562,	69.24427
219.183594,	40.795105
217.265625,	34.605927
215.347656,	23.477093
213.429688,	22.236248
211.511719,	16.05575
209.591797,	11.112915
207.671875,	22.220621
205.751953,	16.044466
203.830078,	16.040705
201.910156,	22.204998
199.988281,	17.266504
198.066406,	18.495487
196.142578,	18.491148
194.220703,	19.719265
192.296875,	19.714636
190.373047,	20.941885
188.449219,	19.705383
186.523438,	23.394648
184.597656,	22.158146
182.671875,	9.845752
180.746094,	18.456448
178.820312,	14.76169
176.892578,	19.677628
174.964844,	19.673002
173.037109,	15.980557
171.109375,	18.434769
169.179688,	18.430435
167.25,	22.111319
165.320312,	28.246706
163.390625,	17.189602
161.460938,	19.640636
159.529297,	15.954262
157.597656,	14.723544
155.666016,	13.493404
153.732422,	14.716611
151.798828,	15.93924
149.867188,	18.387098
147.931641,	15.93173
145.998047,	13.477518
144.0625,	15.924222
142.128906,	13.471166
140.193359,	17.141077
138.255859,	19.585182
136.320312,	13.461637
134.382812,	15.905455
132.445312,	7.339247
130.507812,	18.343788
128.568359,	14.671566
126.628906,	17.112787
124.689453,	10.99848
122.75,	14.661177
120.810547,	9.771809
118.869141,	10.990688
116.927734,	8.546293
114.986328,	10.985495
113.044922,	12.203219
111.101562,	6.100167
109.158203,	10.977705
107.214844,	6.097283
105.271484,	6.09584
103.328125,	3.656639
101.382812,	7.311548
99.4375,	1.218303
