599.40625,	46.621204
597.576172,	49.211273
595.746094,	51.789627
593.916016,	47.894573
592.083984,	53.06036
590.251953,	51.754494
588.419922,	55.623493
586.587891,	42.678135
584.753906,	50.42638
582.921875,	34.902668
581.087891,	62.035137
579.253906,	50.392136
577.417969,	54.256161
575.583984,	54.24387
573.748047,	52.94035
571.912109,	56.801159
570.076172,	52.916355
568.238281,	54.19471
566.402344,	51.602306
564.564453,	59.329197
562.726562,	59.315739
560.888672,	56.723923
559.048828,	52.844387
557.210938,	48.96661
555.371094,	66.99173
553.53125,	69.552544
551.689453,	73.399902
549.849609,	61.79641
548.007812,	59.208107
546.166016,	57.907818
544.324219,	63.040852
542.480469,	75.889084
540.638672,	64.298164
538.794922,	66.854889
536.951172,	82.264229
535.107422,	87.385864
533.261719,	92.505165
531.417969,	114.320648
529.572266,	161.810379
527.726562,	264.486938
525.878906,	762.473206
524.033203,	2041.782349
522.185547,	1117.52832
520.337891,	363.017761
518.490234,	159.024567
516.640625,	101.290955
514.792969,	87.16729
512.943359,	76.894783
511.09375,	73.033394
509.244141,	76.859734
507.392578,	73.000099
505.541016,	53.777279
503.691406,	56.325253
501.837891,	58.872059
499.986328,	65.256302
498.134766,	66.520653
496.28125,	75.45813
494.427734,	54.982353
492.574219,	54.969799
490.71875,	53.679173
488.863281,	53.666912
487.009766,	53.654652
485.154297,	51.087994
483.296875,	56.183952
481.441406,	51.064644
479.583984,	58.710918
477.726562,	49.765266
475.869141,	47.202404
474.011719,	49.742508
472.152344,	45.905659
470.292969,	50.994617
468.433594,	49.708374
466.574219,	39.502739
464.712891,	45.863647
462.853516,	45.853149
460.992188,	42.022427
459.130859,	43.285919
457.267578,	40.730354
455.40625,	47.083683
453.542969,	40.711693
451.679688,	48.334057
449.816406,	43.236347
447.951172,	43.226433
446.087891,	39.403301
444.222656,	34.311131
442.357422,	40.655716
440.490234,	59.699387
438.625,	43.17688
436.757812,	41.897354
434.890625,	50.773014
433.023438,	43.147152
431.154297,	38.062275
429.287109,	43.127338
427.417969,	46.921913
425.548828,	45.643265
423.679688,	44.3652
421.808594,	57.027863
419.9375,	55.747757
418.066406,	54.468239
416.195312,	53.189304
414.324219,	39.249741
412.451172,	51.89901
410.578125,	41.762764
408.705078,	41.753155
406.832031,	54.393105
404.958984,	48.057262
403.083984,	61.954308
401.208984,	78.373116
399.333984,	68.244736
397.457031,	69.492516
395.582031,	56.844414
393.705078,	63.145908
391.828125,	63.131355
389.951172,	69.428482
388.072266,	61.84021
386.193359,	50.470165
384.316406,	46.674137
382.435547,	46.663372
380.556641,	42.869961
378.675781,	55.465973
376.796875,	54.192875
374.916016,	36.540249
373.033203,	45.349834
371.152344,	46.598793
369.269531,	31.478399
367.386719,	32.729973
365.503906,	31.46386
363.621094,	36.489643
361.736328,	30.191347
359.851562,	40.245827
357.966797,	37.721741
356.082031,	35.198818
354.195312,	35.190678
352.310547,	33.926022
350.423828,	31.405716
348.537109,	36.422203
346.648438,	28.879889
344.761719,	28.873205
342.873047,	31.376654
340.984375,	33.878941
339.09375,	33.871098
337.205078,	25.083889
335.314453,	25.078079
333.423828,	36.35479
331.533203,	36.346367
329.642578,	35.084911
327.75,	28.813068
325.857422,	27.553936
323.964844,	36.312675
322.072266,	36.304253
320.177734,	28.78635
318.285156,	32.533543
316.390625,	23.768995
314.494141,	30.017025
312.599609,	33.761314
310.703125,	38.753994
308.806641,	27.496447
306.910156,	33.737804
305.013672,	31.231451
303.115234,	26.228323
301.21875,	31.21694
299.320312,	33.706459
297.419922,	27.458139
295.521484,	33.690792
293.621094,	33.682957
291.720703,	28.686216
289.820312,	23.691797
287.919922,	38.646046
286.017578,	27.419846
284.115234,	41.120197
282.212891,	33.635967
280.310547,	43.592026
278.408203,	36.110699
276.503906,	33.612476
274.599609,	32.360031
272.695312,	31.108166
270.789062,	37.321102
268.884766,	34.824909
266.978516,	49.738277
265.072266,	144.207367
263.164062,	128.016342
261.257812,	90.708878
259.349609,	85.718529
257.441406,	54.648338
255.533203,	44.701843
253.623047,	94.348541
251.714844,	352.483307
249.804688,	117.880623
247.894531,	57.065712
245.982422,	45.889961
244.072266,	66.9589
242.160156,	136.365891
240.248047,	95.433823
238.335938,	64.433754
236.421875,	35.925808
234.507812,	30.963285
232.59375,	40.86198
230.679688,	30.948807
228.765625,	42.080532
226.849609,	54.444424
224.933594,	60.617104
223.017578,	53.182152
221.101562,	61.825237
219.183594,	55.629688
217.265625,	25.954443
215.347656,	24.712729
213.429688,	23.471594
211.511719,	24.701153
209.591797,	22.22583
207.671875,	23.455101
205.751953,	18.512844
203.830078,	18.508505
201.910156,	22.204998
199.988281,	17.266504
198.066406,	17.262455
196.142578,	27.120352
194.220703,	25.881535
192.296875,	19.714636
190.373047,	16.014383
188.449219,	20.93697
186.523438,	14.775567
184.597656,	27.082178
182.671875,	18.460785
180.746094,	20.917309
178.820312,	11.071267
176.892578,	13.528369
174.964844,	19.673002
173.037109,	17.209831
171.109375,	14.747815
169.179688,	13.515652
167.25,	19.654507
165.320312,	17.193647
163.390625,	14.733945
161.460938,	13.502937
159.529297,	22.090515
157.597656,	12.26962
155.666016,	14.720078
153.732422,	13.490227
151.798828,	17.165335
149.867188,	23.290325
147.931641,	17.157248
145.998047,	19.603662
144.0625,	12.249401
142.128906,	23.268377
140.193359,	20.814165
138.255859,	20.809256
136.320312,	13.461637
134.382812,	15.905455
132.445312,	14.678493
130.507812,	20.789625
128.568359,	12.226305
126.628906,	22.002153
124.689453,	15.886693
122.75,	14.661177
120.810547,	12.214761
118.869141,	17.096626
116.927734,	10.988091
114.986328,	14.647326
113.044922,	15.864185
111.101562,	10.980302
109.158203,	12.19745
107.214844,	12.194566
105.271484,	13.41085
103.328125,	12.188797
101.382812,	6.092957
99.4375,	2.436606
