599.40625,	73.81691
597.576172,	59.571541
595.746094,	77.684441
593.916016,	81.550217
592.083984,	67.296066
590.251953,	69.868568
588.419922,	75.027039
586.587891,	67.250397
584.753906,	62.063236
582.921875,	80.146866
581.087891,	77.543922
579.253906,	82.694786
577.417969,	81.384239
575.583984,	77.491241
573.748047,	73.599998
571.912109,	71.00145
570.076172,	68.404068
568.238281,	70.969261
566.402344,	72.243233
564.564453,	88.99379
562.726562,	79.947296
560.888672,	69.615723
559.048828,	72.177704
557.210938,	69.584129
555.371094,	63.126823
553.53125,	78.568611
551.689453,	72.11219
549.849609,	87.544914
548.007812,	83.663628
546.166016,	75.923584
544.324219,	96.491096
542.480469,	81.034103
540.638672,	92.589355
538.794922,	101.568001
536.951172,	98.974152
535.107422,	107.947243
533.261719,	100.213928
531.417969,	119.458656
529.572266,	165.66301
527.726562,	288.881348
525.878906,	788.145691
524.033203,	1994.299072
522.185547,	1090.584473
520.337891,	363.017761
518.490234,	164.154388
516.640625,	117.959091
514.792969,	94.858521
512.943359,	83.302681
511.09375,	93.533997
509.244141,	76.859734
507.392578,	73.000099
505.541016,	62.740158
503.691406,	58.88549
501.837891,	63.991367
499.986328,	66.535835
498.134766,	74.196114
496.28125,	76.737083
494.427734,	75.440903
492.574219,	69.031845
490.71875,	54.957249
488.863281,	61.333614
487.009766,	57.487129
485.154297,	62.58279
483.296875,	60.014675
481.441406,	58.724342
479.583984,	53.605621
477.726562,	53.593365
475.869141,	67.614258
474.011719,	62.496998
472.152344,	62.4827
470.292969,	61.193539
468.433594,	67.552406
466.574219,	57.34269
464.712891,	61.151531
462.853516,	64.958626
460.992188,	57.30331
459.130859,	58.563301
457.267578,	57.277061
455.40625,	54.718876
453.542969,	64.884262
451.679688,	62.325493
449.816406,	61.039547
447.951172,	62.296921
446.087891,	55.927265
444.222656,	58.456001
442.357422,	55.901611
440.490234,	55.888786
438.625,	43.17688
436.757812,	64.750458
434.890625,	57.11964
433.023438,	63.451698
431.154297,	54.555927
429.287109,	50.738045
427.417969,	59.603512
425.548828,	50.714737
423.679688,	55.773392
421.808594,	50.691433
419.9375,	55.747757
418.066406,	69.668678
416.195312,	51.92289
414.324219,	55.709312
412.451172,	63.291473
410.578125,	59.480301
408.705078,	69.588593
406.832031,	51.863194
404.958984,	68.291893
403.083984,	74.598045
401.208984,	72.052704
399.333984,	82.146439
397.457031,	77.073517
395.582031,	78.31897
393.705078,	68.197578
391.828125,	66.919235
389.951172,	65.641479
388.072266,	65.626343
386.193359,	52.993671
384.316406,	55.504379
382.435547,	45.402199
380.556641,	55.478775
378.675781,	66.811287
376.796875,	61.754673
374.916016,	56.700386
373.033203,	62.985882
371.152344,	50.377071
369.269531,	59.17939
367.386719,	50.353806
365.503906,	47.825066
363.621094,	54.105335
361.736328,	49.06094
359.851562,	51.564964
357.966797,	51.553047
356.082031,	56.56953
354.195312,	51.529209
352.310547,	55.28685
350.423828,	56.530289
348.537109,	48.981583
346.648438,	51.481541
344.761719,	46.4482
342.873047,	43.927315
340.984375,	47.681473
339.09375,	56.451828
337.205078,	47.659389
335.314453,	56.425678
333.423828,	51.398151
331.533203,	48.879597
329.642578,	51.374332
327.75,	58.878876
325.857422,	61.370129
323.964844,	56.347256
322.072266,	43.815479
320.177734,	46.308475
318.285156,	50.051601
316.390625,	58.796986
314.494141,	41.273411
312.599609,	43.764668
310.703125,	51.25528
308.806641,	44.994186
306.910156,	44.983738
305.013672,	52.468838
303.115234,	49.958714
301.21875,	52.444458
299.320312,	53.68066
297.419922,	43.683403
295.521484,	43.673248
293.621094,	43.663094
291.720703,	46.147392
289.820312,	41.148911
287.919922,	49.865868
286.017578,	43.622482
284.115234,	46.104462
282.212891,	46.093731
280.310547,	53.55592
278.408203,	51.053055
276.503906,	52.286076
274.599609,	42.316963
272.695312,	54.75037
270.789062,	55.981651
268.884766,	62.18734
266.978516,	77.09433
265.072266,	156.639038
263.164062,	154.116776
261.257812,	111.832863
259.349609,	86.960823
257.441406,	73.278458
255.533203,	73.26136
253.623047,	93.107109
251.714844,	157.624573
249.804688,	105.472137
247.894531,	115.371986
245.982422,	79.377235
244.072266,	71.918816
242.160156,	133.886505
240.248047,	112.785423
238.335938,	63.194641
236.421875,	50.79166
234.507812,	48.302727
232.59375,	58.197369
230.679688,	44.566284
228.765625,	53.219498
226.849609,	68.055527
224.933594,	70.513771
223.017578,	66.786888
221.101562,	66.771255
219.183594,	61.810764
217.265625,	48.201111
215.347656,	35.833458
213.429688,	40.766453
211.511719,	38.286789
209.591797,	34.573513
207.671875,	25.924059
205.751953,	33.32312
203.830078,	25.911907
201.910156,	33.307499
199.988281,	34.533009
198.066406,	36.990974
196.142578,	28.353094
194.220703,	32.043804
192.296875,	35.73278
190.373047,	30.79689
188.449219,	27.094902
186.523438,	25.857243
184.597656,	32.00621
182.671875,	31.998693
180.746094,	29.530317
178.820312,	24.602816
176.892578,	29.516441
174.964844,	29.509504
173.037109,	25.814747
171.109375,	34.411572
169.179688,	27.031303
167.25,	23.339725
165.320312,	24.562353
163.390625,	24.556574
161.460938,	27.005875
159.529297,	23.317766
157.597656,	28.220125
155.666016,	24.533463
153.732422,	30.659605
151.798828,	20.843622
149.867188,	14.709679
147.931641,	22.059319
145.998047,	25.729807
144.0625,	19.599043
142.128906,	20.819073
140.193359,	26.935978
138.255859,	26.929626
136.320312,	20.804348
134.382812,	19.575945
132.445312,	13.455286
130.507812,	26.904222
128.568359,	19.562088
126.628906,	28.113863
124.689453,	21.99696
122.75,	28.100588
120.810547,	18.322142
118.869141,	13.433064
116.927734,	23.197081
114.986328,	19.529768
113.044922,	24.406439
111.101562,	18.300503
109.158203,	9.75796
107.214844,	14.633479
105.271484,	15.849186
103.328125,	10.969917
101.382812,	6.092957
99.4375,	4.873211
