599.40625,	58.276508
597.576172,	47.916241
595.746094,	56.96859
593.916016,	54.36681
592.083984,	64.707756
590.251953,	58.223804
588.419922,	54.329922
586.587891,	56.904182
584.753906,	53.012348
582.921875,	53.000347
581.087891,	42.649158
579.253906,	47.807922
577.417969,	56.839787
575.583984,	67.159073
573.748047,	49.066666
571.912109,	51.637417
570.076172,	59.369572
568.238281,	52.904362
566.402344,	51.602306
564.564453,	51.590603
562.726562,	48.999958
560.888672,	47.699661
559.048828,	57.999939
557.210938,	54.120991
555.371094,	61.838524
553.53125,	63.112495
551.689453,	56.659576
549.849609,	59.221558
548.007812,	54.059578
546.166016,	64.342018
544.324219,	57.894657
542.480469,	63.026524
540.638672,	70.727982
538.794922,	70.711899
536.951172,	73.266579
535.107422,	82.245522
533.261719,	78.372429
531.417969,	101.475632
529.572266,	154.105133
527.726562,	264.486938
525.878906,	694.441101
524.033203,	1724.799194
522.185547,	960.997314
520.337891,	297.597626
518.490234,	139.78772
516.640625,	100.008789
514.792969,	73.066696
512.943359,	73.050041
511.09375,	66.626953
509.244141,	71.735748
507.392578,	65.31588
505.541016,	55.05769
503.691406,	55.045132
501.837891,	60.151886
499.986328,	53.740482
498.134766,	61.403679
496.28125,	61.389664
494.427734,	58.818333
492.574219,	54.969799
490.71875,	46.010719
488.863281,	48.555779
487.009766,	52.377159
485.154297,	42.147594
483.296875,	48.522503
481.441406,	39.5751
479.583984,	47.223999
477.726562,	40.833038
475.869141,	45.926666
474.011719,	52.293404
472.152344,	54.831757
470.292969,	42.070557
468.433594,	44.610077
466.574219,	49.696995
464.712891,	47.137638
462.853516,	48.400547
460.992188,	44.569241
459.130859,	43.285919
457.267578,	54.731415
455.40625,	52.173813
453.542969,	48.345135
451.679688,	48.334057
449.816406,	50.866291
447.951172,	35.59824
446.087891,	45.758671
444.222656,	47.018959
442.357422,	49.549156
440.490234,	43.18679
438.625,	55.875961
436.757812,	41.897354
434.890625,	48.234364
433.023438,	41.87812
431.154297,	45.674732
429.287109,	48.201145
427.417969,	51.994553
425.548828,	48.179001
423.679688,	55.773392
421.808594,	57.027863
419.9375,	51.946774
418.066406,	41.801205
416.195312,	53.189304
414.324219,	49.378708
412.451172,	35.443226
410.578125,	46.824917
408.705078,	43.018402
406.832031,	48.068325
404.958984,	56.909912
403.083984,	85.977402
401.208984,	75.844948
399.333984,	60.661987
397.457031,	53.067013
395.582031,	56.844414
393.705078,	58.094234
391.828125,	59.343475
389.951172,	50.493443
388.072266,	58.054073
386.193359,	42.899639
384.316406,	55.504379
382.435547,	63.058609
380.556641,	59.261417
378.675781,	51.684204
376.796875,	57.973774
374.916016,	54.180367
373.033203,	50.388706
371.152344,	52.895927
369.269531,	46.588032
367.386719,	52.871498
365.503906,	49.083622
363.621094,	49.072281
361.736328,	42.771076
359.851562,	51.564964
357.966797,	44.008698
356.082031,	52.798225
354.195312,	54.042828
352.310547,	56.543365
350.423828,	50.249146
348.537109,	47.725643
346.648438,	47.7146
344.761719,	52.724983
342.873047,	46.437447
340.984375,	38.898045
339.09375,	43.906975
337.205078,	35.117447
335.314453,	41.37883
333.423828,	40.115631
331.533203,	40.106335
329.642578,	35.084911
327.75,	42.593231
325.857422,	37.573547
323.964844,	37.564835
322.072266,	43.815479
320.177734,	40.050575
318.285156,	38.789993
316.390625,	31.274994
314.494141,	35.019863
312.599609,	33.761314
310.703125,	35.003605
308.806641,	34.99548
306.910156,	44.983738
305.013672,	43.72403
303.115234,	43.713875
301.21875,	36.211651
299.320312,	46.190334
297.419922,	41.18721
295.521484,	42.425442
293.621094,	36.17799
291.720703,	38.664032
289.820312,	39.901974
287.919922,	42.385986
286.017578,	37.390697
284.115234,	41.120197
282.212891,	44.847954
280.310547,	43.592026
278.408203,	34.865501
276.503906,	39.837009
274.599609,	39.827728
272.695312,	36.085472
270.789062,	46.029358
268.884766,	44.774883
266.978516,	55.955559
265.072266,	136.748367
263.164062,	119.316208
261.257812,	89.466286
259.349609,	77.022446
257.441406,	50.922318
255.533203,	49.668716
253.623047,	68.278549
251.714844,	137.766357
249.804688,	76.932617
247.894531,	53.344036
245.982422,	54.571846
244.072266,	73.158798
242.160156,	130.167435
240.248047,	87.997421
238.335938,	52.042648
236.421875,	52.030483
234.507812,	34.678879
232.59375,	38.385498
230.679688,	44.566284
228.765625,	38.367546
226.849609,	60.63129
224.933594,	55.66877
223.017578,	58.12933
221.101562,	59.35223
219.183594,	43.267536
217.265625,	37.077778
215.347656,	29.655275
213.429688,	27.177635
211.511719,	24.701153
209.591797,	24.695366
207.671875,	28.393017
205.751953,	30.85474
203.830078,	19.742405
201.910156,	29.606665
199.988281,	25.899757
198.066406,	22.194584
196.142578,	20.956635
194.220703,	18.486811
192.296875,	20.946802
190.373047,	29.565014
188.449219,	22.168556
186.523438,	18.46946
184.597656,	22.158146
182.671875,	22.152943
180.746094,	18.456448
178.820312,	22.142534
176.892578,	17.217924
174.964844,	19.673002
173.037109,	14.751284
171.109375,	14.747815
169.179688,	23.345217
167.25,	12.284066
165.320312,	15.965529
163.390625,	14.733945
161.460938,	19.640636
159.529297,	15.954262
157.597656,	17.177467
155.666016,	9.813385
153.732422,	14.716611
151.798828,	11.034859
149.867188,	17.161291
147.931641,	15.93173
145.998047,	11.027061
144.0625,	6.124701
142.128906,	14.695817
140.193359,	18.36544
138.255859,	12.240739
136.320312,	13.461637
134.382812,	12.234965
132.445312,	12.232079
130.507812,	11.006272
128.568359,	14.671566
126.628906,	11.001077
124.689453,	13.442586
122.75,	9.774117
120.810547,	8.550333
118.869141,	13.433064
116.927734,	12.20899
114.986328,	13.426716
113.044922,	6.10161
111.101562,	9.760268
109.158203,	9.75796
107.214844,	3.65837
105.271484,	4.876672
103.328125,	2.437759
101.382812,	3.655774
99.4375,	1.218303
