#Wave		#Intensity
899.963257	-1.000000
899.920715	-1.000000
899.878235	-1.000000
899.835815	-1.000000
899.793274	-1.000000
899.750793	-1.000000
899.708252	-1.000000
899.665771	-1.000000
899.623230	-1.000000
899.580688	-1.000000
899.538208	-1.000000
899.495667	-1.000000
899.453186	-1.000000
899.410645	-1.000000
899.368103	-1.000000
899.325623	-1.000000
899.283020	-1.000000
899.240540	-1.000000
899.197998	-1.000000
899.155396	-1.000000
899.112854	-1.000000
899.070312	-1.000000
899.027771	-1.000000
898.985229	-1.000000
898.942688	-1.000000
898.900085	-1.000000
898.857544	-1.000000
898.814941	-1.000000
898.772400	-1.000000
898.729797	-1.000000
898.687256	-1.000000
898.644714	-1.000000
898.602112	-1.000000
898.559570	-1.000000
898.516907	-1.000000
898.474304	-1.000000
898.431763	-1.000000
898.389221	-1.000000
898.346558	-1.000000
898.304016	-1.000000
898.261353	-1.000000
898.218750	-1.000000
898.176147	-1.000000
898.133606	-1.000000
898.090942	-1.000000
898.048340	-1.000000
898.005676	-1.000000
897.963074	-1.000000
897.920471	-1.000000
897.877808	-1.000000
897.835205	-1.000000
897.792542	-1.000000
897.749939	-1.000000
897.707275	-1.000000
897.664673	-1.000000
897.622009	-1.000000
897.579346	-1.000000
897.536743	-1.000000
897.494080	-1.000000
897.451477	-1.000000
897.408752	-1.000000
897.366089	-1.000000
897.323425	-1.000000
897.280823	-1.000000
897.238098	-1.000000
897.195435	-1.000000
897.152710	-1.000000
897.110046	-1.000000
897.067383	-1.000000
897.024719	-1.000000
896.982056	-1.000000
896.939331	-1.000000
896.896667	-1.000000
896.854004	-1.000000
896.811279	-1.000000
896.768555	-1.000000
896.725830	-1.000000
896.683167	-1.000000
896.640442	-1.000000
896.597778	-1.000000
896.555054	-1.000000
896.512268	-1.000000
896.469604	-1.000000
896.426880	-1.000000
896.384094	-1.000000
896.341431	-1.000000
896.298706	-1.000000
896.255920	-1.000000
896.213257	-1.000000
896.170532	-1.000000
896.127747	-1.000000
896.085022	-1.000000
896.042236	-1.000000
895.999512	-1.000000
895.956787	-1.000000
895.913940	-1.000000
895.871216	-1.000000
895.828430	-1.000000
895.785767	-1.000000
895.742981	-1.000000
895.700195	-1.000000
895.657410	-1.000000
895.614624	-1.000000
895.571838	-1.000000
895.529114	-1.000000
895.486267	-1.000000
895.443481	-1.000000
895.400757	-1.000000
895.357910	-1.000000
895.315125	-1.000000
895.272339	-1.000000
895.229553	-1.000000
895.186768	-1.000000
895.143921	-1.000000
895.101135	-1.000000
895.058350	-1.000000
895.015442	-1.000000
894.972656	-1.000000
894.929871	-1.000000
894.887024	-1.000000
894.844238	-1.000000
894.801392	-1.000000
894.758545	-1.000000
894.715698	-1.000000
894.672913	-1.000000
894.630066	-1.000000
894.587219	-1.000000
894.544373	-1.000000
894.501526	-1.000000
894.458679	-1.000000
894.415894	-1.000000
894.372986	-1.000000
894.330078	-1.000000
894.287292	-1.000000
894.244446	-1.000000
894.201538	-1.000000
894.158691	-1.000000
894.115845	-1.000000
894.072876	-1.000000
894.030029	-1.000000
893.987183	-1.000000
893.944275	-1.000000
893.901428	-1.000000
893.858521	-1.000000
893.815552	-1.000000
893.772766	-1.000000
893.729858	-1.000000
893.686951	-1.000000
893.644043	-1.000000
893.601135	-1.000000
893.558167	-1.000000
893.515320	-1.000000
893.472412	-1.000000
893.429504	-1.000000
893.386536	-1.000000
893.343689	-1.000000
893.300720	-1.000000
893.257812	-1.000000
893.214844	-1.000000
893.171936	-1.000000
893.129028	-1.000000
893.086060	-1.000000
893.043091	-1.000000
893.000183	-1.000000
892.957275	-1.000000
892.914307	-1.000000
892.871338	-1.000000
892.828430	-1.000000
892.785461	-1.000000
892.742493	-1.000000
892.699524	-1.000000
892.656555	-1.000000
892.613525	-1.000000
892.570618	-1.000000
892.527649	-1.000000
892.484619	-1.000000
892.441711	-1.000000
892.398682	-1.000000
892.355652	-1.000000
892.312744	-1.000000
892.269775	-1.000000
892.226746	-1.000000
892.183777	-1.000000
892.140686	-1.000000
892.097717	-1.000000
892.054749	-1.000000
892.011719	-1.000000
891.968750	-1.000000
891.925720	-1.000000
891.882751	-1.000000
891.839722	-1.000000
891.796692	-1.000000
891.753662	-1.000000
891.710632	-1.000000
891.667603	-1.000000
891.624573	-1.000000
891.581482	-1.000000
891.538513	-1.000000
891.495422	-1.000000
891.452454	-1.000000
891.409363	-1.000000
891.366272	-1.000000
891.323242	-1.000000
891.280273	-1.000000
891.237122	-1.000000
891.194092	-1.000000
891.151062	-1.000000
891.107971	-1.000000
891.064880	-1.000000
891.021851	-1.000000
890.978760	-1.000000
890.935730	-1.000000
890.892639	-1.000000
890.849548	-1.000000
890.806458	-1.000000
890.763367	-1.000000
890.720276	-1.000000
890.677185	-1.000000
890.634155	-1.000000
890.591003	-1.000000
890.547913	-1.000000
890.504761	-1.000000
890.461731	-1.000000
890.418579	-1.000000
890.375488	-1.000000
890.332336	-1.000000
890.289246	-1.000000
890.246155	-1.000000
890.203003	-1.000000
890.159912	-1.000000
890.116760	-1.000000
890.073669	-1.000000
890.030457	-1.000000
889.987366	-1.000000
889.944214	-1.000000
889.901062	-1.000000
889.857910	-1.000000
889.814758	-1.000000
889.771606	-1.000000
889.728516	-1.000000
889.685364	-1.000000
889.642212	-1.000000
889.598999	-1.000000
889.555908	-1.000000
889.512695	-1.000000
889.469543	-1.000000
889.426392	-1.000000
889.383240	-1.000000
889.340027	-1.000000
889.296875	-1.000000
889.253723	-1.000000
889.210449	-1.000000
889.167297	-1.000000
889.124146	-1.000000
889.080933	-1.000000
889.037781	-1.000000
888.994507	-1.000000
888.951294	-1.000000
888.908081	-1.000000
888.864868	-1.000000
888.821716	-1.000000
888.778503	-1.000000
888.735291	-1.000000
888.692078	-1.000000
888.648804	-1.000000
888.605652	-1.000000
888.562378	-1.000000
888.519226	-1.000000
888.475952	-1.000000
888.432739	-1.000000
888.389465	-1.000000
888.346252	-1.000000
888.303040	-1.000000
888.259766	-1.000000
888.216492	-1.000000
888.173279	-1.000000
888.130066	-1.000000
888.086731	-1.000000
888.043457	-1.000000
888.000244	-1.000000
887.956970	-1.000000
887.913696	-1.000000
887.870483	-1.000000
887.827209	-1.000000
887.783936	-1.000000
887.740601	-1.000000
887.697327	-1.000000
887.654053	-1.000000
887.610779	-1.000000
887.567505	-1.000000
887.524231	-1.000000
887.480957	-1.000000
887.437622	-1.000000
887.394348	-1.000000
887.351074	-1.000000
887.307739	-1.000000
887.264404	-1.000000
887.221130	-1.000000
887.177734	-1.000000
887.134460	-1.000000
887.091125	-1.000000
887.047852	-1.000000
887.004517	-1.000000
886.961182	-1.000000
886.917908	-1.000000
886.874573	-1.000000
886.831238	-1.000000
886.787842	-1.000000
886.744568	-1.000000
886.701172	-1.000000
886.657837	-1.000000
886.614502	-1.000000
886.571167	-1.000000
886.527832	-1.000000
886.484436	-1.000000
886.441101	-1.000000
886.397766	-1.000000
886.354370	-1.000000
886.310974	-1.000000
886.267639	-1.000000
886.224304	-1.000000
886.180908	-1.000000
886.137451	-1.000000
886.094177	-1.000000
886.050781	-1.000000
886.007385	-1.000000
885.963989	-1.000000
885.920593	-1.000000
885.877197	-1.000000
885.833862	-1.000000
885.790405	-1.000000
885.747009	-1.000000
885.703613	-1.000000
885.660217	-1.000000
885.616821	-1.000000
885.573364	-1.000000
885.529968	-1.000000
885.486511	-1.000000
885.443115	-1.000000
885.399719	-1.000000
885.356323	-1.000000
885.312805	-1.000000
885.269409	-1.000000
885.225952	-1.000000
885.182556	-1.000000
885.139099	-1.000000
885.095642	-1.000000
885.052185	-1.000000
885.008728	-1.000000
884.965332	-1.000000
884.921875	-1.000000
884.878418	-1.000000
884.835022	-1.000000
884.791504	-1.000000
884.748108	-1.000000
884.704590	-1.000000
884.661072	-1.000000
884.617615	-1.000000
884.574219	-1.000000
884.530762	-1.000000
884.487244	-1.000000
884.443726	-1.000000
884.400269	-1.000000
884.356812	-1.000000
884.313232	-1.000000
884.269836	-1.000000
884.226257	-1.000000
884.182739	-1.000000
884.139343	-1.000000
884.095825	-1.000000
884.052307	-1.000000
884.008789	-1.000000
883.965332	-1.000000
883.921753	-1.000000
883.878235	-1.000000
883.834717	-1.000000
883.791199	-1.000000
883.747681	-1.000000
883.704163	-1.000000
883.660645	-1.000000
883.617126	-1.000000
883.573547	-1.000000
883.530029	-1.000000
883.486511	-1.000000
883.442932	-1.000000
883.399414	-1.000000
883.355896	-1.000000
883.312317	-1.000000
883.268738	-1.000000
883.225220	-1.000000
883.181641	-1.000000
883.138062	-1.000000
883.094482	-1.000000
883.050964	-1.000000
883.007385	-1.000000
882.963745	-1.000000
882.920227	-1.000000
882.876648	-1.000000
882.833069	-1.000000
882.789429	-1.000000
882.745911	-1.000000
882.702332	-1.000000
882.658691	-1.000000
882.615112	-1.000000
882.571533	-1.000000
882.527954	-1.000000
882.484314	-1.000000
882.440735	-1.000000
882.397156	-1.000000
882.353516	-1.000000
882.309875	-1.000000
882.266296	-1.000000
882.222656	-1.000000
882.179016	-1.000000
882.135437	-1.000000
882.091797	-1.000000
882.048218	-1.000000
882.004517	-1.000000
881.960876	-1.000000
881.917236	-1.000000
881.873657	-1.000000
881.829956	-1.000000
881.786316	-1.000000
881.742737	-1.000000
881.699036	-1.000000
881.655396	-1.000000
881.611694	-1.000000
881.568054	-1.000000
881.524414	-1.000000
881.480774	-1.000000
881.437073	-1.000000
881.393372	-1.000000
881.349731	-1.000000
881.306091	-1.000000
881.262390	-1.000000
881.218689	-1.000000
881.174988	-1.000000
881.131348	-1.000000
881.087646	-1.000000
881.044006	-1.000000
881.000244	-1.000000
880.956604	-1.000000
880.912903	-1.000000
880.869141	-1.000000
880.825500	-1.000000
880.781799	-1.000000
880.738098	-1.000000
880.694397	-1.000000
880.650574	-1.000000
880.606934	-1.000000
880.563232	-1.000000
880.519470	-1.000000
880.475769	-1.000000
880.432007	-1.000000
880.388306	-1.000000
880.344604	-1.000000
880.300842	-1.000000
880.257080	-1.000000
880.213379	-1.000000
880.169617	-1.000000
880.125854	-1.000000
880.082092	-1.000000
880.038391	-1.000000
879.994629	-1.000000
879.950867	-1.000000
879.907104	-1.000000
879.863342	-1.000000
879.819580	-1.000000
879.775818	-1.000000
879.732056	-1.000000
879.688293	-1.000000
879.644531	-1.000000
879.600708	-1.000000
879.556946	-1.000000
879.513123	-1.000000
879.469299	-1.000000
879.425598	-1.000000
879.381775	-1.000000
879.338013	-1.000000
879.294189	-1.000000
879.250427	-1.000000
879.206604	-1.000000
879.162781	-1.000000
879.119019	-1.000000
879.075134	-1.000000
879.031372	-1.000000
878.987549	-1.000000
878.943726	-1.000000
878.899963	-1.000000
878.856140	-1.000000
878.812317	-1.000000
878.768433	-1.000000
878.724609	-1.000000
878.680786	-1.000000
878.636963	-1.000000
878.593079	-1.000000
878.549255	-1.000000
878.505432	-1.000000
878.461609	-1.000000
878.417725	-1.000000
878.373840	-1.000000
878.330017	-1.000000
878.286194	-1.000000
878.242310	-1.000000
878.198425	-1.000000
878.154602	-1.000000
878.110718	-1.000000
878.066895	-1.000000
878.022949	-1.000000
877.979065	-1.000000
877.935181	-1.000000
877.891296	-1.000000
877.847473	-1.000000
877.803589	-1.000000
877.759705	-1.000000
877.715759	-1.000000
877.671936	-1.000000
877.627991	-1.000000
877.584106	-1.000000
877.540222	-1.000000
877.496277	-1.000000
877.452393	-1.000000
877.408447	-1.000000
877.364563	-1.000000
877.320679	-1.000000
877.276672	-1.000000
877.232788	-1.000000
877.188904	-1.000000
877.144958	-1.000000
877.101013	-1.000000
877.057068	-1.000000
877.013184	-1.000000
876.969238	-1.000000
876.925354	-1.000000
876.881348	-1.000000
876.837402	-1.000000
876.793457	-1.000000
876.749512	-1.000000
876.705566	-1.000000
876.661560	-1.000000
876.617676	-1.000000
876.573730	-1.000000
876.529724	-1.000000
876.485779	-1.000000
876.441833	-1.000000
876.397888	-1.000000
876.353821	-1.000000
876.309875	-1.000000
876.265869	-1.000000
876.221924	-1.000000
876.177917	-1.000000
876.133972	-1.000000
876.089966	-1.000000
876.046021	-1.000000
876.002014	-1.000000
875.958008	-1.000000
875.913940	-1.000000
875.869995	-1.000000
875.825989	-1.000000
875.781982	-1.000000
875.737976	-1.000000
875.693970	-1.000000
875.649902	-1.000000
875.605896	-1.000000
875.561890	-1.000000
875.517883	-1.000000
875.473877	-1.000000
875.429810	-1.000000
875.385864	-1.000000
875.341736	-1.000000
875.297791	-1.000000
875.253723	-1.000000
875.209656	-1.000000
875.165588	-1.000000
875.121521	-1.000000
875.077454	-1.000000
875.033447	-1.000000
874.989380	-1.000000
874.945374	-1.000000
874.901306	-1.000000
874.857239	-1.000000
874.813110	-1.000000
874.769104	-1.000000
874.725037	-1.000000
874.680969	-1.000000
874.636841	-1.000000
874.592773	-1.000000
874.548706	-1.000000
874.504639	-1.000000
874.460571	-1.000000
874.416443	-1.000000
874.372437	-1.000000
874.328308	-1.000000
874.284180	-1.000000
874.240051	-1.000000
874.196045	-1.000000
874.151917	-1.000000
874.107788	-1.000000
874.063660	-1.000000
874.019531	-1.000000
873.975464	-1.000000
873.931335	-1.000000
873.887207	-1.000000
873.843079	-1.000000
873.798950	-1.000000
873.754822	-1.000000
873.710754	-1.000000
873.666565	-1.000000
873.622437	-1.000000
873.578308	-1.000000
873.534180	-1.000000
873.489990	-1.000000
873.445862	-1.000000
873.401672	-1.000000
873.357605	-1.000000
873.313416	-1.000000
873.269287	-1.000000
873.225098	-1.000000
873.180969	-1.000000
873.136780	-1.000000
873.092590	-1.000000
873.048462	-1.000000
873.004272	-1.000000
872.960083	-1.000000
872.915894	-1.000000
872.871765	-1.000000
872.827576	-1.000000
872.783386	-1.000000
872.739197	-1.000000
872.695007	-1.000000
872.650818	-1.000000
872.606567	-1.000000
872.562439	-1.000000
872.518188	-1.000000
872.474060	-1.000000
872.429810	-1.000000
872.385559	-1.000000
872.341370	-1.000000
872.297241	-1.000000
872.252930	-1.000000
872.208740	-1.000000
872.164551	-1.000000
872.120361	-1.000000
872.076050	-1.000000
872.031860	-1.000000
871.987610	-1.000000
871.943359	-1.000000
871.899109	-1.000000
871.854919	-1.000000
871.810608	-1.000000
871.766418	-1.000000
871.722168	-1.000000
871.677917	-1.000000
871.633667	-1.000000
871.589417	-1.000000
871.545166	-1.000000
871.500916	-1.000000
871.456665	-1.000000
871.412354	-1.000000
871.368103	-1.000000
871.323853	-1.000000
871.279602	-1.000000
871.235229	-1.000000
871.190979	-1.000000
871.146790	-1.000000
871.102417	-1.000000
871.058105	-1.000000
871.013916	-1.000000
870.969604	-1.000000
870.925293	-1.000000
870.880981	-1.000000
870.836731	-1.000000
870.792419	-1.000000
870.748047	-1.000000
870.703796	-1.000000
870.659485	-1.000000
870.615173	-1.000000
870.570862	-1.000000
870.526550	-1.000000
870.482178	-1.000000
870.437866	-1.000000
870.393555	-1.000000
870.349243	-1.000000
870.304932	-1.000000
870.260559	-1.000000
870.216248	-1.000000
870.171875	-1.000000
870.127563	-1.000000
870.083252	-1.000000
870.038879	-1.000000
869.994507	-1.000000
869.950195	-1.000000
869.905823	-1.000000
869.861511	-1.000000
869.817078	-1.000000
869.772766	-1.000000
869.728394	-1.000000
869.684021	-1.000000
869.639648	-1.000000
869.595276	-1.000000
869.550903	-1.000000
869.506531	-1.000000
869.462158	-1.000000
869.417786	-1.000000
869.373413	-1.000000
869.328979	-1.000000
869.284607	-1.000000
869.240234	-1.000000
869.195862	-1.000000
869.151428	-1.000000
869.107056	-1.000000
869.062622	-1.000000
869.018250	-1.000000
868.973877	-1.000000
868.929443	-1.000000
868.885010	-1.000000
868.840637	-1.000000
868.796143	-1.000000
868.751770	-1.000000
868.707336	-1.000000
868.662903	-1.000000
868.618469	-1.000000
868.574036	-1.000000
868.529663	-1.000000
868.485229	-1.000000
868.440735	-1.000000
868.396301	-1.000000
868.351868	-1.000000
868.307434	-1.000000
868.263000	-1.000000
868.218506	-1.000000
868.174072	-1.000000
868.129578	-1.000000
868.085144	-1.000000
868.040710	-1.000000
867.996277	-1.000000
867.951721	-1.000000
867.907288	-1.000000
867.862793	-1.000000
867.818359	-1.000000
867.773865	-1.000000
867.729370	-1.000000
867.684937	-1.000000
867.640442	-1.000000
867.595947	-1.000000
867.551514	-1.000000
867.506958	-1.000000
867.462463	-1.000000
867.417969	-1.000000
867.373535	-1.000000
867.328979	-1.000000
867.284485	-1.000000
867.239929	-1.000000
867.195435	-1.000000
867.150940	-1.000000
867.106445	-1.000000
867.061890	-1.000000
867.017395	-1.000000
866.972839	-1.000000
866.928345	-1.000000
866.883789	-1.000000
866.839294	-1.000000
866.794739	-1.000000
866.750183	-1.000000
866.705688	-1.000000
866.661133	-1.000000
866.616638	-1.000000
866.572021	-1.000000
866.527527	-1.000000
866.482910	-1.000000
866.438416	-1.000000
866.393860	-1.000000
866.349304	-1.000000
866.304749	-1.000000
866.260193	-1.000000
866.215637	-1.000000
866.171021	-1.000000
866.126465	-1.000000
866.081909	-1.000000
866.037292	-1.000000
865.992676	-1.000000
865.948181	-1.000000
865.903564	-1.000000
865.859009	-1.000000
865.814392	-1.000000
865.769836	-1.000000
865.725159	-1.000000
865.680603	-1.000000
865.635986	-1.000000
865.591431	-1.000000
865.546753	-1.000000
865.502197	-1.000000
865.457581	-1.000000
865.412964	-1.000000
865.368347	-1.000000
865.323792	-1.000000
865.279114	-1.000000
865.234497	-1.000000
865.189880	-1.000000
865.145264	-1.000000
865.100647	-1.000000
865.055969	-1.000000
865.011353	-1.000000
864.966675	-1.000000
864.922058	-1.000000
864.877441	-1.000000
864.832825	-1.000000
864.788147	-1.000000
864.743469	-1.000000
864.698853	-1.000000
864.654175	-1.000000
864.609497	-1.000000
864.564880	-1.000000
864.520203	-1.000000
864.475586	-1.000000
864.430908	-1.000000
864.386169	-1.000000
864.341492	-1.000000
864.296875	-1.000000
864.252136	-1.000000
864.207520	-1.000000
864.162781	-1.000000
864.118103	-1.000000
864.073425	-1.000000
864.028687	-1.000000
863.984009	-1.000000
863.939331	-1.000000
863.894653	-1.000000
863.849976	-1.000000
863.805237	-1.000000
863.760559	-1.000000
863.715820	-1.000000
863.671143	-1.000000
863.626404	-1.000000
863.581665	-1.000000
863.536987	-1.000000
863.492249	-1.000000
863.447571	-1.000000
863.402832	-1.000000
863.358093	-1.000000
863.313354	-1.000000
863.268616	-1.000000
863.223877	-1.000000
863.179138	-1.000000
863.134338	-1.000000
863.089600	-1.000000
863.044861	-1.000000
863.000183	-1.000000
862.955444	-1.000000
862.910645	-1.000000
862.865906	-1.000000
862.821106	-1.000000
862.776367	-1.000000
862.731628	-1.000000
862.686890	-1.000000
862.642090	-1.000000
862.597290	-1.000000
862.552490	-1.000000
862.507751	-1.000000
862.463013	-1.000000
862.418213	-1.000000
862.373352	-1.000000
862.328613	-1.000000
862.283813	-1.000000
862.239014	-1.000000
862.194275	-1.000000
862.149475	-1.000000
862.104675	-1.000000
862.059814	-1.000000
862.015076	-1.000000
861.970215	-1.000000
861.925415	-1.000000
861.880615	-1.000000
861.835754	-1.000000
861.790955	-1.000000
861.746155	-1.000000
861.701294	-1.000000
861.656494	-1.000000
861.611694	-1.000000
861.566833	-1.000000
861.522034	-1.000000
861.477173	-1.000000
861.432373	-1.000000
861.387512	-1.000000
861.342651	-1.000000
861.297852	-1.000000
861.252991	-1.000000
861.208130	-1.000000
861.163269	-1.000000
861.118408	-1.000000
861.073608	-1.000000
861.028687	-1.000000
860.983826	-1.000000
860.938965	-1.000000
860.894165	-1.000000
860.849243	-1.000000
860.804382	-1.000000
860.759460	-1.000000
860.714600	-1.000000
860.669739	-1.000000
860.624817	-1.000000
860.580017	-1.000000
860.535095	-1.000000
860.490173	-1.000000
860.445251	-1.000000
860.400391	-1.000000
860.355469	-1.000000
860.310608	-1.000000
860.265686	-1.000000
860.220764	-1.000000
860.175903	-1.000000
860.130920	-1.000000
860.086060	-1.000000
860.041138	-1.000000
859.996216	-1.000000
859.951294	-1.000000
859.906372	-1.000000
859.861450	-1.000000
859.816467	-1.000000
859.771606	-1.000000
859.726685	-1.000000
859.681702	-1.000000
859.636780	-1.000000
859.591858	-1.000000
859.546936	-1.000000
859.501953	-1.000000
859.457031	-1.000000
859.412109	-1.000000
859.367065	-1.000000
859.322144	-1.000000
859.277161	-1.000000
859.232239	-1.000000
859.187256	-1.000000
859.142273	-1.000000
859.097290	-1.000000
859.052429	-1.000000
859.007385	-1.000000
858.962402	-1.000000
858.917419	-1.000000
858.872498	-1.000000
858.827454	-1.000000
858.782532	-1.000000
858.737488	-1.000000
858.692505	-1.000000
858.647522	-1.000000
858.602478	-1.000000
858.557495	-1.000000
858.512512	-1.000000
858.467529	-1.000000
858.422485	-1.000000
858.377502	-1.000000
858.332458	-1.000000
858.287537	-1.000000
858.242493	-1.000000
858.197449	-1.000000
858.152405	-1.000000
858.107422	-1.000000
858.062378	-1.000000
858.017334	-1.000000
857.972290	-1.000000
857.927307	-1.000000
857.882263	-1.000000
857.837219	-1.000000
857.792236	-1.000000
857.747131	-1.000000
857.702087	-1.000000
857.657043	-1.000000
857.611938	-1.000000
857.566956	-1.000000
857.521912	-1.000000
857.476807	-1.000000
857.431763	-1.000000
857.386719	-1.000000
857.341614	-1.000000
857.296570	-1.000000
857.251465	-1.000000
857.206421	-1.000000
857.161316	-1.000000
857.116272	-1.000000
857.071167	-1.000000
857.026123	-1.000000
856.981018	-1.000000
856.935974	-1.000000
856.890869	-1.000000
856.845764	-1.000000
856.800659	-1.000000
856.755554	-1.000000
856.710510	-1.000000
856.665344	-1.000000
856.620239	-1.000000
856.575134	-1.000000
856.530029	-1.000000
856.484924	-1.000000
856.439758	-1.000000
856.394653	-1.000000
856.349548	-1.000000
856.304443	-1.000000
856.259338	-1.000000
856.214233	-1.000000
856.169006	-1.000000
856.123962	-1.000000
856.078796	-1.000000
856.033630	-1.000000
855.988525	-1.000000
855.943420	-1.000000
855.898254	-1.000000
855.853027	-1.000000
855.807922	-1.000000
855.762756	-1.000000
855.717590	-1.000000
855.672485	-1.000000
855.627258	-1.000000
855.582153	-1.000000
855.536987	-1.000000
855.491821	-1.000000
855.446655	-1.000000
855.401489	-1.000000
855.356262	-1.000000
855.311096	-1.000000
855.265930	-1.000000
855.220764	-1.000000
855.175537	-1.000000
855.130371	-1.000000
855.085205	-1.000000
855.039978	-1.000000
854.994812	-1.000000
854.949646	-1.000000
854.904358	-1.000000
854.859192	-1.000000
854.814026	-1.000000
854.768799	-1.000000
854.723511	-1.000000
854.678406	-1.000000
854.633179	-1.000000
854.587952	-1.000000
854.542725	-1.000000
854.497498	-1.000000
854.452209	-1.000000
854.407043	-1.000000
854.361755	-1.000000
854.316589	-1.000000
854.271301	-1.000000
854.226074	-1.000000
854.180908	-1.000000
854.135681	-1.000000
854.090332	-1.000000
854.045105	-1.000000
853.999878	-1.000000
853.954651	-1.000000
853.909363	-1.000000
853.864136	-1.000000
853.818848	-1.000000
853.773621	-1.000000
853.728333	-1.000000
853.683044	-1.000000
853.637817	-1.000000
853.592529	-1.000000
853.547241	-1.000000
853.501953	-1.000000
853.456726	-1.000000
853.411438	-1.000000
853.366089	-1.000000
853.320801	-1.000000
853.275513	-1.000000
853.230225	-1.000000
853.184937	-1.000000
853.139648	-1.000000
853.094421	-1.000000
853.049072	-1.000000
853.003784	-1.000000
852.958435	-1.000000
852.913147	-1.000000
852.867859	-1.000000
852.822571	-1.000000
852.777222	-1.000000
852.731873	-1.000000
852.686584	-1.000000
852.641296	-1.000000
852.595886	-1.000000
852.550598	-1.000000
852.505249	-1.000000
852.459900	-1.000000
852.414551	-1.000000
852.369263	-1.000000
852.323914	-1.000000
852.278564	-1.000000
852.233215	-1.000000
852.187927	-1.000000
852.142517	-1.000000
852.097168	-1.000000
852.051819	-1.000000
852.006470	-1.000000
851.961121	-1.000000
851.915771	-1.000000
851.870361	-1.000000
851.825012	-1.000000
851.779602	-1.000000
851.734253	-1.000000
851.688843	-1.000000
851.643555	-1.000000
851.598145	-1.000000
851.552734	-1.000000
851.507324	-1.000000
851.461975	-1.000000
851.416565	-1.000000
851.371216	-1.000000
851.325806	-1.000000
851.280396	-1.000000
851.235046	-1.000000
851.189636	-1.000000
851.144165	-1.000000
851.098755	-1.000000
851.053345	-1.000000
851.007935	-1.000000
850.962524	-1.000000
850.917175	-1.000000
850.871765	-1.000000
850.826294	-1.000000
850.780945	-1.000000
850.735474	-1.000000
850.690002	-1.000000
850.644592	-1.000000
850.599182	-1.000000
850.553711	-1.000000
850.508301	-1.000000
850.462891	-1.000000
850.417419	-1.000000
850.372009	-1.000000
850.326538	-1.000000
850.281067	-1.000000
850.235657	-1.000000
850.190186	-1.000000
850.144714	-1.000000
850.099182	-1.000000
850.053772	-1.000000
850.008301	-1.000000
849.962830	-1.000000
849.917358	-1.000000
849.871887	-1.000000
849.826355	-1.000000
849.780945	-1.000000
849.735474	-1.000000
849.690002	-1.000000
849.644470	-1.000000
849.598999	-1.000000
849.553528	-1.000000
849.507996	-1.000000
849.462524	-1.000000
849.417053	-1.000000
849.371521	-1.000000
849.325989	-1.000000
849.280518	-1.000000
849.234985	-1.000000
849.189514	-1.000000
849.143982	-1.000000
849.098450	-1.000000
849.052979	-1.000000
849.007446	-1.000000
848.961914	-1.000000
848.916443	-1.000000
848.870911	-1.000000
848.825378	-1.000000
848.779846	-1.000000
848.734253	-1.000000
848.688721	-1.000000
848.643250	-1.000000
848.597656	-1.000000
848.552124	-1.000000
848.506592	-1.000000
848.461060	-1.000000
848.415466	-1.000000
848.369934	-1.000000
848.324341	-1.000000
848.278809	-1.000000
848.233276	-1.000000
848.187683	-1.000000
848.142151	-1.000000
848.096558	-1.000000
848.050964	-1.000000
848.005371	-1.000000
847.959839	-1.000000
847.914246	-1.000000
847.868652	-1.000000
847.823120	-1.000000
847.777466	-1.000000
847.731934	-1.000000
847.686340	-1.000000
847.640747	-1.000000
847.595093	-1.000000
847.549500	-1.000000
847.503906	-1.000000
847.458313	-1.000000
847.412720	-1.000000
847.367188	-1.000000
847.321533	-1.000000
847.275879	-1.000000
847.230286	-1.000000
847.184692	-1.000000
847.139038	-1.000000
847.093445	-1.000000
847.047791	-1.000000
847.002197	-1.000000
846.956543	-1.000000
846.910950	-1.000000
846.865356	-1.000000
846.819641	-1.000000
846.773987	-1.000000
846.728333	-1.000000
846.682739	-1.000000
846.637085	-1.000000
846.591431	-1.000000
846.545776	-1.000000
846.500183	-1.000000
846.454468	-1.000000
846.408813	-1.000000
846.363159	-1.000000
846.317505	-1.000000
846.271851	-1.000000
846.226135	-1.000000
846.180481	-1.000000
846.134827	-1.000000
846.089172	-1.000000
846.043457	-1.000000
845.997803	-1.000000
845.952148	-1.000000
845.906433	-1.000000
845.860718	-1.000000
845.815002	-1.000000
845.769348	-1.000000
845.723633	-1.000000
845.677979	-1.000000
845.632324	-1.000000
845.586548	-1.000000
845.540894	-1.000000
845.495178	-1.000000
845.449463	-1.000000
845.403748	-1.000000
845.358032	-1.000000
845.312317	-1.000000
845.266602	-1.000000
845.220886	-1.000000
845.175110	-1.000000
845.129456	-1.000000
845.083679	-1.000000
845.037964	-1.000000
844.992249	-1.000000
844.946533	-1.000000
844.900818	-1.000000
844.854980	-1.000000
844.809265	-1.000000
844.763550	-1.000000
844.717773	-1.000000
844.672058	-1.000000
844.626282	-1.000000
844.580505	-1.000000
844.534729	-1.000000
844.489014	-1.000000
844.443237	-1.000000
844.397522	-1.000000
844.351746	-1.000000
844.305969	-1.000000
844.260193	-1.000000
844.214417	-1.000000
844.168640	-1.000000
844.122803	-1.000000
844.077087	-1.000000
844.031250	-1.000000
843.985474	-1.000000
843.939697	-1.000000
843.893982	-1.000000
843.848145	-1.000000
843.802368	-1.000000
843.756531	-1.000000
843.710754	-1.000000
843.664917	-1.000000
843.619141	-1.000000
843.573303	-1.000000
843.527527	-1.000000
843.481689	-1.000000
843.435913	-1.000000
843.390137	-1.000000
843.344299	-1.000000
843.298462	-1.000000
843.252625	-1.000000
843.206787	-1.000000
843.160950	-1.000000
843.115112	-1.000000
843.069336	-1.000000
843.023438	-1.000000
842.977661	-1.000000
842.931763	-1.000000
842.885986	-1.000000
842.840088	-1.000000
842.794250	-1.000000
842.748413	-1.000000
842.702576	-1.000000
842.656677	-1.000000
842.610840	-1.000000
842.565002	-1.000000
842.519104	-1.000000
842.473206	-1.000000
842.427429	-1.000000
842.381531	-1.000000
842.335632	-1.000000
842.289795	-1.000000
842.243835	-1.000000
842.197998	-1.000000
842.152161	-1.000000
842.106262	-1.000000
842.060303	-1.000000
842.014465	-1.000000
841.968567	-1.000000
841.922668	-1.000000
841.876770	-1.000000
841.830933	-1.000000
841.784973	-1.000000
841.739075	-1.000000
841.693237	-1.000000
841.647278	-1.000000
841.601318	-1.000000
841.555420	-1.000000
841.509521	-1.000000
841.463562	-1.000000
841.417664	-1.000000
841.371765	-1.000000
841.325867	-1.000000
841.279907	-1.000000
841.234009	-1.000000
841.188049	-1.000000
841.142090	-1.000000
841.096130	-1.000000
841.050232	-1.000000
841.004272	-1.000000
840.958374	-1.000000
840.912415	-1.000000
840.866455	-1.000000
840.820496	-1.000000
840.774536	-1.000000
840.728638	-1.000000
840.682678	-1.000000
840.636719	-1.000000
840.590759	-1.000000
840.544800	-1.000000
840.498779	-1.000000
840.452820	-1.000000
840.406799	-1.000000
840.360901	-1.000000
840.314880	-1.000000
840.268921	-1.000000
840.222900	-1.000000
840.176941	-1.000000
840.130981	-1.000000
840.084961	-1.000000
840.039001	-1.000000
839.992981	-1.000000
839.947021	-1.000000
839.901001	-1.000000
839.854980	-1.000000
839.808960	-1.000000
839.763000	-1.000000
839.716980	-1.000000
839.670959	-1.000000
839.625000	-1.000000
839.578918	-1.000000
839.532959	-1.000000
839.486877	-1.000000
839.440857	-1.000000
839.394836	-1.000000
839.348816	-1.000000
839.302795	-1.000000
839.256775	-1.000000
839.210754	-1.000000
839.164673	-1.000000
839.118652	-1.000000
839.072571	-1.000000
839.026611	-1.000000
838.980530	-1.000000
838.934509	-1.000000
838.888428	-1.000000
838.842407	-1.000000
838.796265	-1.000000
838.750244	-1.000000
838.704224	-1.000000
838.658142	-1.000000
838.612061	-1.000000
838.566040	-1.000000
838.519958	-1.000000
838.473877	-1.000000
838.427734	-1.000000
838.381714	-1.000000
838.335632	-1.000000
838.289551	-1.000000
838.243469	-1.000000
838.197388	-1.000000
838.151245	-1.000000
838.105225	-1.000000
838.059143	-1.000000
838.013000	-1.000000
837.966919	-1.000000
837.920837	-1.000000
837.874695	-1.000000
837.828613	-1.000000
837.782471	-1.000000
837.736450	-1.000000
837.690308	-1.000000
837.644165	-1.000000
837.598083	-1.000000
837.551880	-1.000000
837.505798	-1.000000
837.459717	-1.000000
837.413513	-1.000000
837.367432	-1.000000
837.321289	-1.000000
837.275146	-1.000000
837.229004	-1.000000
837.182861	-1.000000
837.136780	-1.000000
837.090637	-1.000000
837.044434	-1.000000
836.998352	-1.000000
836.952148	-1.000000
836.906006	-1.000000
836.859863	-1.000000
836.813721	-1.000000
836.767578	-1.000000
836.721375	-1.000000
836.675171	-1.000000
836.629028	-1.000000
836.582825	-1.000000
836.536743	-1.000000
836.490540	-1.000000
836.444336	-1.000000
836.398132	-1.000000
836.351990	-1.000000
836.305786	-1.000000
836.259644	-1.000000
836.213440	-1.000000
836.167236	-1.000000
836.121094	-1.000000
836.074890	-1.000000
836.028625	-1.000000
835.982422	-1.000000
835.936218	-1.000000
835.890076	-1.000000
835.843872	-1.000000
835.797668	-1.000000
835.751404	-1.000000
835.705261	-1.000000
835.658997	-1.000000
835.612793	-1.000000
835.566528	-1.000000
835.520325	-1.000000
835.474121	-1.000000
835.427856	-1.000000
835.381653	-1.000000
835.335388	-1.000000
835.289185	-1.000000
835.242920	-1.000000
835.196716	-1.000000
835.150513	-1.000000
835.104248	-1.000000
835.057922	-1.000000
835.011719	-1.000000
834.965454	-1.000000
834.919250	-1.000000
834.872986	-1.000000
834.826660	-1.000000
834.780457	-1.000000
834.734192	-1.000000
834.687927	-1.000000
834.641663	-1.000000
834.595398	-1.000000
834.549072	-1.000000
834.502869	-1.000000
834.456543	-1.000000
834.410278	-1.000000
834.364014	-1.000000
834.317688	-1.000000
834.271423	-1.000000
834.225159	-1.000000
834.178833	-1.000000
834.132568	-1.000000
834.086243	-1.000000
834.039978	-1.000000
833.993652	-1.000000
833.947388	-1.000000
833.901062	-1.000000
833.854736	-1.000000
833.808472	-1.000000
833.762146	-1.000000
833.715820	-1.000000
833.669495	-1.000000
833.623169	-1.000000
833.576843	-1.000000
833.530518	-1.000000
833.484192	-1.000000
833.437866	-1.000000
833.391541	-1.000000
833.345215	-1.000000
833.298889	-1.000000
833.252563	-1.000000
833.206177	-1.000000
833.159851	-1.000000
833.113525	-1.000000
833.067200	-1.000000
833.020813	-1.000000
832.974487	-1.000000
832.928101	-1.000000
832.881775	-1.000000
832.835388	-1.000000
832.789062	-1.000000
832.742676	-1.000000
832.696289	-1.000000
832.649963	-1.000000
832.603577	-1.000000
832.557190	-1.000000
832.510803	-1.000000
832.464417	-1.000000
832.418091	-1.000000
832.371643	-1.000000
832.325317	-1.000000
832.278870	-1.000000
832.232483	-1.000000
832.186096	-1.000000
832.139709	-1.000000
832.093323	-1.000000
832.046936	-1.000000
832.000549	-1.000000
831.954102	-1.000000
831.907776	-1.000000
831.861328	-1.000000
831.814880	-1.000000
831.768494	-1.000000
831.722046	-1.000000
831.675659	-1.000000
831.629272	-1.000000
831.582825	-1.000000
831.536438	-1.000000
831.489929	-1.000000
831.443542	-1.000000
831.397156	-1.000000
831.350708	-1.000000
831.304260	-1.000000
831.257812	-1.000000
831.211365	-1.000000
831.164917	-1.000000
831.118530	-1.000000
831.072021	-1.000000
831.025574	-1.000000
830.979065	-1.000000
830.932678	-1.000000
830.886169	-1.000000
830.839722	-1.000000
830.793274	-1.000000
830.746826	-1.000000
830.700378	-1.000000
830.653931	-1.000000
830.607422	-1.000000
830.560974	-1.000000
830.514465	-1.000000
830.468018	-1.000000
830.421509	-1.000000
830.375061	-1.000000
830.328552	-1.000000
830.282043	-1.000000
830.235535	-1.000000
830.189087	-1.000000
830.142578	-1.000000
830.096130	-1.000000
830.049622	-1.000000
830.003113	-1.000000
829.956543	-1.000000
829.910095	-1.000000
829.863525	-1.000000
829.817078	-1.000000
829.770569	-1.000000
829.723999	-1.000000
829.677490	-1.000000
829.630981	-1.000000
829.584473	-1.000000
829.537964	-1.000000
829.491455	-1.000000
829.444885	-1.000000
829.398376	-1.000000
829.351868	-1.000000
829.305298	-1.000000
829.258789	-1.000000
829.212219	-1.000000
829.165710	-1.000000
829.119141	-1.000000
829.072571	-1.000000
829.026001	-1.000000
828.979492	-1.000000
828.932922	-1.000000
828.886353	-1.000000
828.839783	-1.000000
828.793274	-1.000000
828.746704	-1.000000
828.700134	-1.000000
828.653564	-1.000000
828.606995	-1.000000
828.560425	-1.000000
828.513794	-1.000000
828.467285	-1.000000
828.420715	-1.000000
828.374146	-1.000000
828.327515	-1.000000
828.280945	-1.000000
828.234375	-1.000000
828.187744	-1.000000
828.141113	-1.000000
828.094604	-1.000000
828.047974	-1.000000
828.001404	-1.000000
827.954773	-1.000000
827.908142	-1.000000
827.861572	-1.000000
827.814941	-1.000000
827.768311	-1.000000
827.721680	-1.000000
827.675110	-1.000000
827.628479	-1.000000
827.581909	-1.000000
827.535278	-1.000000
827.488586	-1.000000
827.441956	-1.000000
827.395386	-1.000000
827.348694	-1.000000
827.302063	-1.000000
827.255493	-1.000000
827.208862	-1.000000
827.162170	-1.000000
827.115540	-1.000000
827.068848	-1.000000
827.022217	-1.000000
826.975647	-1.000000
826.928955	-1.000000
826.882263	-1.000000
826.835571	-1.000000
826.789001	-1.000000
826.742249	-1.000000
826.695618	-1.000000
826.648987	-1.000000
826.602295	-1.000000
826.555603	-1.000000
826.508972	-1.000000
826.462280	-1.000000
826.415588	-1.000000
826.368896	-1.000000
826.322266	-1.000000
826.275574	-1.000000
826.228882	-1.000000
826.182190	-1.000000
826.135498	-1.000000
826.088806	-1.000000
826.042053	-1.000000
825.995361	-1.000000
825.948669	-1.000000
825.901978	-1.000000
825.855286	-1.000000
825.808594	-1.000000
825.761841	-1.000000
825.715149	-1.000000
825.668396	-1.000000
825.621765	-1.000000
825.575012	-1.000000
825.528320	-1.000000
825.481567	-1.000000
825.434814	-1.000000
825.388123	-1.000000
825.341370	-1.000000
825.294617	-1.000000
825.247864	-1.000000
825.201172	-1.000000
825.154419	-1.000000
825.107727	-1.000000
825.060974	-1.000000
825.014160	-1.000000
824.967468	-1.000000
824.920654	-1.000000
824.873962	-1.000000
824.827148	-1.000000
824.780396	-1.000000
824.733643	-1.000000
824.686890	-1.000000
824.640137	-1.000000
824.593384	-1.000000
824.546631	-1.000000
824.499817	-1.000000
824.453003	-1.000000
824.406311	-1.000000
824.359497	-1.000000
824.312744	-1.000000
824.265930	-1.000000
824.219177	-1.000000
824.172302	-1.000000
824.125549	-1.000000
824.078735	-1.000000
824.031982	-1.000000
823.985168	-1.000000
823.938354	-1.000000
823.891541	-1.000000
823.844788	-1.000000
823.797974	-1.000000
823.751221	-1.000000
823.704346	-1.000000
823.657532	-1.000000
823.610718	-1.000000
823.563904	-1.000000
823.517090	-1.000000
823.470276	-1.000000
823.423462	-1.000000
823.376648	-1.000000
823.329773	-1.000000
823.282959	-1.000000
823.236084	-1.000000
823.189331	-1.000000
823.142456	-1.000000
823.095642	-1.000000
823.048767	-1.000000
823.001953	-1.000000
822.955017	-1.000000
822.908203	-1.000000
822.861328	-1.000000
822.814514	-1.000000
822.767639	-1.000000
822.720764	-1.000000
822.673950	-1.000000
822.627075	-1.000000
822.580200	-1.000000
822.533386	-1.000000
822.486450	-1.000000
822.439636	-1.000000
822.392700	-1.000000
822.345825	-1.000000
822.298950	-1.000000
822.252075	-1.000000
822.205200	-1.000000
822.158325	-1.000000
822.111450	-1.000000
822.064514	-1.000000
822.017639	-1.000000
821.970764	-1.000000
821.923828	-1.000000
821.876953	-1.000000
821.830078	-1.000000
821.783142	-1.000000
821.736267	-1.000000
821.689331	-1.000000
821.642456	-1.000000
821.595520	-1.000000
821.548584	-1.000000
821.501648	-1.000000
821.454712	-1.000000
821.407837	-1.000000
821.360901	-1.000000
821.314026	-1.000000
821.267029	-1.000000
821.220154	-1.000000
821.173157	-1.000000
821.126221	-1.000000
821.079285	-1.000000
821.032349	-1.000000
820.985413	-1.000000
820.938477	-1.000000
820.891541	-1.000000
820.844604	-1.000000
820.797668	-1.000000
820.750671	-1.000000
820.703735	-1.000000
820.656738	-1.000000
820.609802	-1.000000
820.562866	-1.000000
820.515930	-1.000000
820.468933	-1.000000
820.421997	-1.000000
820.375000	-1.000000
820.328003	-1.000000
820.281006	-1.000000
820.234009	-1.000000
820.187073	-1.000000
820.140076	-1.000000
820.093140	-1.000000
820.046082	-1.000000
819.999146	-1.000000
819.952148	-1.000000
819.905090	-1.000000
819.858093	-1.000000
819.811096	-1.000000
819.764099	-1.000000
819.717163	-1.000000
819.670105	-1.000000
819.623108	-1.000000
819.576111	-1.000000
819.529114	-1.000000
819.482117	-1.000000
819.435059	-1.000000
819.388062	-1.000000
819.341064	-1.000000
819.294006	-1.000000
819.247009	-1.000000
819.199951	-1.000000
819.152954	-1.000000
819.105896	-1.000000
819.058838	-1.000000
819.011841	-1.000000
818.964783	-1.000000
818.917725	-1.000000
818.870667	-1.000000
818.823669	-1.000000
818.776611	-1.000000
818.729553	-1.000000
818.682434	-1.000000
818.635376	-1.000000
818.588379	-1.000000
818.541321	-1.000000
818.494263	-1.000000
818.447144	-1.000000
818.400146	-1.000000
818.353027	-1.000000
818.306030	-1.000000
818.258911	-1.000000
818.211853	-1.000000
818.164795	-1.000000
818.117676	-1.000000
818.070618	-1.000000
818.023499	-1.000000
817.976440	-1.000000
817.929321	-1.000000
817.882202	-1.000000
817.835144	-1.000000
817.788025	-1.000000
817.740967	-1.000000
817.693848	-1.000000
817.646729	-1.000000
817.599670	-1.000000
817.552551	-1.000000
817.505432	-1.000000
817.458374	-1.000000
817.411255	-1.000000
817.364075	-1.000000
817.316956	-1.000000
817.269897	-1.000000
817.222717	-1.000000
817.175598	-1.000000
817.128479	-1.000000
817.081360	-1.000000
817.034180	-1.000000
816.987061	-1.000000
816.939941	-1.000000
816.892822	-1.000000
816.845642	-1.000000
816.798523	-1.000000
816.751404	-1.000000
816.704224	-1.000000
816.657104	-1.000000
816.609985	-1.000000
816.562744	-1.000000
816.515625	-1.000000
816.468506	-1.000000
816.421265	-1.000000
816.374146	-1.000000
816.326965	-1.000000
816.279785	-1.000000
816.232605	-1.000000
816.185486	-1.000000
816.138306	-1.000000
816.091125	-1.000000
816.043945	-1.000000
815.996765	-1.000000
815.949585	-1.000000
815.902405	-1.000000
815.855164	-1.000000
815.807983	-1.000000
815.760803	-1.000000
815.713623	-1.000000
815.666443	-1.000000
815.619263	-1.000000
815.572083	-1.000000
815.524841	-1.000000
815.477661	-1.000000
815.430420	-1.000000
815.383240	-1.000000
815.335999	-1.000000
815.288757	-1.000000
815.241577	-1.000000
815.194336	-1.000000
815.147156	-1.000000
815.099915	-1.000000
815.052673	-1.000000
815.005432	-1.000000
814.958252	-1.000000
814.911011	-1.000000
814.863770	-1.000000
814.816528	-1.000000
814.769287	-1.000000
814.722046	-1.000000
814.674866	-1.000000
814.627563	-1.000000
814.580322	-1.000000
814.533081	-1.000000
814.485840	-1.000000
814.438599	-1.000000
814.391296	-1.000000
814.344055	-1.000000
814.296753	-1.000000
814.249573	-1.000000
814.202209	-1.000000
814.154968	-1.000000
814.107727	-1.000000
814.060486	-1.000000
814.013184	-1.000000
813.965881	-1.000000
813.918640	-1.000000
813.871338	-1.000000
813.824097	-1.000000
813.776794	-1.000000
813.729431	-1.000000
813.682190	-1.000000
813.634949	-1.000000
813.587585	-1.000000
813.540283	-1.000000
813.492981	-1.000000
813.445740	-1.000000
813.398376	-1.000000
813.351074	-1.000000
813.303833	-1.000000
813.256531	-1.000000
813.209167	-1.000000
813.161865	-1.000000
813.114502	-1.000000
813.067261	-1.000000
813.019958	-1.000000
812.972595	-1.000000
812.925232	-1.000000
812.877930	-1.000000
812.830566	-1.000000
812.783325	-1.000000
812.735962	-1.000000
812.688599	-1.000000
812.641296	-1.000000
812.593933	-1.000000
812.546631	-1.000000
812.499207	-1.000000
812.451904	-1.000000
812.404541	-1.000000
812.357239	-1.000000
812.309875	-1.000000
812.262512	-1.000000
812.215149	-1.000000
812.167786	-1.000000
812.120361	-1.000000
812.073059	-1.000000
812.025635	-1.000000
811.978333	-1.000000
811.930969	-1.000000
811.883545	-1.000000
811.836182	-1.000000
811.788818	-1.000000
811.741394	-1.000000
811.694031	-1.000000
811.646667	-1.000000
811.599304	-1.000000
811.551880	-1.000000
811.504456	-1.000000
811.457092	-1.000000
811.409668	-1.000000
811.362305	-1.000000
811.314941	-1.000000
811.267517	-1.000000
811.220154	-1.000000
811.172729	-1.000000
811.125305	-1.000000
811.077881	-1.000000
811.030457	-1.000000
810.983032	-1.000000
810.935608	-1.000000
810.888184	-1.000000
810.840820	-1.000000
810.793396	-1.000000
810.745911	-1.000000
810.698486	-1.000000
810.651062	-1.000000
810.603638	-1.000000
810.556213	-1.000000
810.508728	-1.000000
810.461365	-1.000000
810.413879	-1.000000
810.366394	-1.000000
810.318970	-1.000000
810.271545	-1.000000
810.224060	-1.000000
810.176636	-1.000000
810.129211	-1.000000
810.081726	-1.000000
810.034302	-1.000000
809.986816	-1.000000
809.939331	-1.000000
809.891907	-1.000000
809.844421	-1.000000
809.796936	-1.000000
809.749451	-1.000000
809.702026	-1.000000
809.654480	-1.000000
809.607056	-1.000000
809.559570	-1.000000
809.512085	-1.000000
809.464600	-1.000000
809.417114	-1.000000
809.369568	-1.000000
809.322144	-1.000000
809.274597	-1.000000
809.227173	-1.000000
809.179626	-1.000000
809.132141	-1.000000
809.084656	-1.000000
809.037109	-1.000000
808.989563	-1.000000
808.942078	-1.000000
808.894592	-1.000000
808.847107	-1.000000
808.799561	-1.000000
808.752014	-1.000000
808.704529	-1.000000
808.656982	-1.000000
808.609497	-1.000000
808.561951	-1.000000
808.514404	-1.000000
808.466858	-1.000000
808.419373	-1.000000
808.371826	-1.000000
808.324280	-1.000000
808.276733	-1.000000
808.229187	-1.000000
808.181641	-1.000000
808.134094	-1.000000
808.086548	-1.000000
808.039001	-1.000000
807.991455	-1.000000
807.943909	-1.000000
807.896301	-1.000000
807.848755	-1.000000
807.801208	-1.000000
807.753662	-1.000000
807.706055	-1.000000
807.658508	-1.000000
807.610901	-1.000000
807.563416	-1.000000
807.515747	-1.000000
807.468201	-1.000000
807.420654	-1.000000
807.373108	-1.000000
807.325439	-1.000000
807.277832	-1.000000
807.230347	-1.000000
807.182739	-1.000000
807.135132	-1.000000
807.087463	-1.000000
807.039917	-1.000000
806.992310	-1.000000
806.944702	-1.000000
806.897156	-1.000000
806.849548	-1.000000
806.801880	-1.000000
806.754272	-1.000000
806.706665	-1.000000
806.659058	-1.000000
806.611450	-1.000000
806.563843	-1.000000
806.516235	-1.000000
806.468567	-1.000000
806.420959	-1.000000
806.373291	-1.000000
806.325684	-1.000000
806.278076	-1.000000
806.230469	-1.000000
806.182800	-1.000000
806.135132	-1.000000
806.087524	-1.000000
806.039856	-1.000000
805.992249	-1.000000
805.944580	-1.000000
805.896973	-1.000000
805.849243	-1.000000
805.801636	-1.000000
805.753967	-1.000000
805.706299	-1.000000
805.658691	-1.000000
805.611023	-1.000000
805.563354	-1.000000
805.515625	-1.000000
805.468018	-1.000000
805.420349	-1.000000
805.372681	-1.000000
805.324951	-1.000000
805.277283	-1.000000
805.229614	-1.000000
805.181885	-1.000000
805.134216	-1.000000
805.086548	-1.000000
805.038879	-1.000000
804.991211	-1.000000
804.943481	-1.000000
804.895752	-1.000000
804.848083	-1.000000
804.800354	-1.000000
804.752686	-1.000000
804.705017	-1.000000
804.657288	-1.000000
804.609619	-1.000000
804.561890	-1.000000
804.514160	-1.000000
804.466431	-1.000000
804.418701	-1.000000
804.371033	-1.000000
804.323303	-1.000000
804.275513	-1.000000
804.227844	-1.000000
804.180115	-1.000000
804.132385	-1.000000
804.084595	-1.000000
804.036865	-1.000000
803.989197	-1.000000
803.941467	-1.000000
803.893738	-1.000000
803.845947	-1.000000
803.798218	-1.000000
803.750488	-1.000000
803.702759	-1.000000
803.654968	-1.000000
803.607178	-1.000000
803.559448	-1.000000
803.511719	-1.000000
803.463928	-1.000000
803.416199	-1.000000
803.368408	-1.000000
803.320679	-1.000000
803.272888	-1.000000
803.225159	-1.000000
803.177307	-1.000000
803.129578	-1.000000
803.081787	-1.000000
803.033997	-1.000000
802.986206	-1.000000
802.938416	-1.000000
802.890686	-1.000000
802.842896	-1.000000
802.795105	-1.000000
802.747253	-1.000000
802.699524	-1.000000
802.651672	-1.000000
802.603882	-1.000000
802.556091	-1.000000
802.508301	-1.000000
802.460510	-1.000000
802.412720	-1.000000
802.364929	-1.000000
802.317078	-1.000000
802.269226	-1.000000
802.221436	-1.000000
802.173645	-1.000000
802.125793	-1.000000
802.078003	-1.000000
802.030151	-1.000000
801.982361	-1.000000
801.934509	-1.000000
801.886719	-1.000000
801.838867	-1.000000
801.791016	-1.000000
801.743164	-1.000000
801.695312	-1.000000
801.647522	-1.000000
801.599609	-1.000000
801.551819	-1.000000
801.503967	-1.000000
801.456055	-1.000000
801.408203	-1.000000
801.360352	-1.000000
801.312500	-1.000000
801.264709	-1.000000
801.216797	-1.000000
801.168945	-1.000000
801.121094	-1.000000
801.073181	-1.000000
801.025391	-1.000000
800.977478	-1.000000
800.929565	-1.000000
800.881714	-1.000000
800.833862	-1.000000
800.785950	-1.000000
800.738037	-1.000000
800.690247	-1.000000
800.642334	-1.000000
800.594421	-1.000000
800.546570	-1.000000
800.498596	-1.000000
800.450745	-1.000000
800.402832	-1.000000
800.354980	-1.000000
800.307068	-1.000000
800.259155	-1.000000
800.211243	-1.000000
800.163330	-1.000000
800.115417	-1.000000
800.067505	-1.000000
800.019653	-1.000000
799.971680	-1.000000
799.923767	-1.000000
799.875854	-1.000000
799.827942	-1.000000
799.779968	-1.000000
799.732117	-1.000000
799.684143	-1.000000
799.636230	-1.000000
799.588257	-1.000000
799.540344	-1.000000
799.492371	-1.000000
799.444458	-1.000000
799.396545	-1.000000
799.348572	-1.000000
799.300598	-1.000000
799.252686	-1.000000
799.204712	-1.000000
799.156738	-1.000000
799.108826	-1.000000
799.060852	-1.000000
799.012878	-1.000000
798.964966	-1.000000
798.916992	-1.000000
798.869019	-1.000000
798.821045	-1.000000
798.773071	-1.000000
798.725098	-1.000000
798.677124	-1.000000
798.629150	-1.000000
798.581116	-1.000000
798.533203	-1.000000
798.485168	-1.000000
798.437256	-1.000000
798.389221	-1.000000
798.341248	-1.000000
798.293274	-1.000000
798.245300	-1.000000
798.197266	-1.000000
798.149292	-1.000000
798.101257	-1.000000
798.053223	-1.000000
798.005310	-1.000000
797.957275	-1.000000
797.909241	-1.000000
797.861206	-1.000000
797.813232	-1.000000
797.765198	-1.000000
797.717224	-1.000000
797.669189	-1.000000
797.621155	-1.000000
797.573120	-1.000000
797.525146	-1.000000
797.477112	-1.000000
797.429016	-1.000000
797.381042	-1.000000
797.333008	-1.000000
797.284912	-1.000000
797.236877	-1.000000
797.188843	-1.000000
797.140808	-1.000000
797.092773	-1.000000
797.044800	-1.000000
796.996704	-1.000000
796.948608	-1.000000
796.900635	-1.000000
796.852539	-1.000000
796.804504	-1.000000
796.756409	-1.000000
796.708374	-1.000000
796.660339	-1.000000
796.612244	-1.000000
796.564209	-1.000000
796.516113	-1.000000
796.468018	-1.000000
796.419983	-1.000000
796.371887	-1.000000
796.323792	-1.000000
796.275757	-1.000000
796.227600	-1.000000
796.179504	-1.000000
796.131470	-1.000000
796.083374	-1.000000
796.035278	-1.000000
795.987183	-1.000000
795.939087	-1.000000
795.891052	-1.000000
795.842896	-1.000000
795.794800	-1.000000
795.746643	-1.000000
795.698547	-1.000000
795.650452	-1.000000
795.602356	-1.000000
795.554260	-1.000000
795.506165	-1.000000
795.458069	-1.000000
795.409912	-1.000000
795.361816	-1.000000
795.313660	-1.000000
795.265564	-1.000000
795.217407	-1.000000
795.169312	-1.000000
795.121216	-1.000000
795.073059	-1.000000
795.024902	-1.000000
794.976746	-1.000000
794.928589	-1.000000
794.880493	-1.000000
794.832336	-1.000000
794.784180	-1.000000
794.736023	-1.000000
794.687866	-1.000000
794.639709	-1.000000
794.591553	-1.000000
794.543396	-1.000000
794.495239	-1.000000
794.447144	-1.000000
794.398926	-1.000000
794.350830	-1.000000
794.302612	-1.000000
794.254456	-1.000000
794.206238	-1.000000
794.158081	-1.000000
794.109924	-1.000000
794.061707	-1.000000
794.013550	-1.000000
793.965393	-1.000000
793.917236	-1.000000
793.869019	-1.000000
793.820862	-1.000000
793.772583	-1.000000
793.724426	-1.000000
793.676270	-1.000000
793.628052	-1.000000
793.579895	-1.000000
793.531677	-1.000000
793.483459	-1.000000
793.435242	-1.000000
793.387085	-1.000000
793.338806	-1.000000
793.290649	-1.000000
793.242371	-1.000000
793.194214	-1.000000
793.145996	-1.000000
793.097778	-1.000000
793.049561	-1.000000
793.001343	-1.000000
792.953064	-1.000000
792.904846	-1.000000
792.856628	-1.000000
792.808411	-1.000000
792.760193	-1.000000
792.711914	-1.000000
792.663696	-1.000000
792.615417	-1.000000
792.567200	-1.000000
792.518982	-1.000000
792.470703	-1.000000
792.422485	-1.000000
792.374207	-1.000000
792.325928	-1.000000
792.277710	-1.000000
792.229492	-1.000000
792.181152	-1.000000
792.132935	-1.000000
792.084656	-1.000000
792.036377	-1.000000
791.988098	-1.000000
791.939819	-1.000000
791.891602	-1.000000
791.843323	-1.000000
791.795044	-1.000000
791.746765	-1.000000
791.698486	-1.000000
791.650208	-1.000000
791.601929	-1.000000
791.553650	-1.000000
791.505371	-1.000000
791.457031	-1.000000
791.408752	-1.000000
791.360474	-1.000000
791.312195	-1.000000
791.263916	-1.000000
791.215576	-1.000000
791.167297	-1.000000
791.118958	-1.000000
791.070679	-1.000000
791.022339	-1.000000
790.974060	-1.000000
790.925720	-1.000000
790.877441	-1.000000
790.829102	-1.000000
790.780823	-1.000000
790.732422	-1.000000
790.684143	-1.000000
790.635803	-1.000000
790.587524	-1.000000
790.539185	-1.000000
790.490845	-1.000000
790.442505	-1.000000
790.394104	-1.000000
790.345825	-1.000000
790.297424	-1.000000
790.249146	-1.000000
790.200745	-1.000000
790.152405	-1.000000
790.104065	-1.000000
790.055725	-1.000000
790.007385	-1.000000
789.958984	-1.000000
789.910706	-1.000000
789.862305	-1.000000
789.813904	-1.000000
789.765564	-1.000000
789.717224	-1.000000
789.668823	-1.000000
789.620483	-1.000000
789.572083	-1.000000
789.523682	-1.000000
789.475342	-1.000000
789.427002	-1.000000
789.378601	-1.000000
789.330200	-1.000000
789.281799	-1.000000
789.233459	-1.000000
789.185059	-1.000000
789.136658	-1.000000
789.088257	-1.000000
789.039856	-1.000000
788.991455	-1.000000
788.943115	-1.000000
788.894714	-1.000000
788.846252	-1.000000
788.797913	-1.000000
788.749451	-1.000000
788.701050	-1.000000
788.652649	-1.000000
788.604248	-1.000000
788.555847	-1.000000
788.507385	-1.000000
788.458984	-1.000000
788.410522	-1.000000
788.362122	-1.000000
788.313660	-1.000000
788.265259	-1.000000
788.216858	-1.000000
788.168396	-1.000000
788.119995	-1.000000
788.071533	-1.000000
788.023071	-1.000000
787.974670	-1.000000
787.926208	-1.000000
787.877747	-1.000000
787.829346	-1.000000
787.780884	-1.000000
787.732422	-1.000000
787.684021	-1.000000
787.635559	-1.000000
787.587097	-1.000000
787.538635	-1.000000
787.490173	-1.000000
787.441711	-1.000000
787.393250	-1.000000
787.344788	-1.000000
787.296326	-1.000000
787.247803	-1.000000
787.199341	-1.000000
787.150879	-1.000000
787.102417	-1.000000
787.053894	-1.000000
787.005432	-1.000000
786.956909	-1.000000
786.908508	-1.000000
786.859985	-1.000000
786.811523	-1.000000
786.763000	-1.000000
786.714478	-1.000000
786.666016	-1.000000
786.617493	-1.000000
786.569031	-1.000000
786.520508	-1.000000
786.471985	-1.000000
786.423523	-1.000000
786.375000	-1.000000
786.326477	-1.000000
786.277954	-1.000000
786.229431	-1.000000
786.180908	-1.000000
786.132446	-1.000000
786.083923	-1.000000
786.035339	-1.000000
785.986816	-1.000000
785.938354	-1.000000
785.889771	-1.000000
785.841248	-1.000000
785.792725	-1.000000
785.744202	-1.000000
785.695679	-1.000000
785.647095	-1.000000
785.598572	-1.000000
785.550049	-1.000000
785.501465	-1.000000
785.452942	-1.000000
785.404358	-1.000000
785.355835	-1.000000
785.307251	-1.000000
785.258728	-1.000000
785.210205	-1.000000
785.161621	-1.000000
785.113037	-1.000000
785.064453	-1.000000
785.015930	-1.000000
784.967346	-1.000000
784.918762	-1.000000
784.870239	-1.000000
784.821594	-1.000000
784.773071	-1.000000
784.724487	-1.000000
784.675903	-1.000000
784.627319	-1.000000
784.578735	-1.000000
784.530151	-1.000000
784.481567	-1.000000
784.432983	-1.000000
784.384399	-1.000000
784.335754	-1.000000
784.287170	-1.000000
784.238586	-1.000000
784.190002	-1.000000
784.141357	-1.000000
784.092773	-1.000000
784.044128	-1.000000
783.995605	-1.000000
783.946960	-1.000000
783.898376	-1.000000
783.849670	-1.000000
783.801086	-1.000000
783.752502	-1.000000
783.703857	-1.000000
783.655212	-1.000000
783.606628	-1.000000
783.558044	-1.000000
783.509338	-1.000000
783.460693	-1.000000
783.412109	-1.000000
783.363464	-1.000000
783.314819	-1.000000
783.266174	-1.000000
783.217529	-1.000000
783.168884	-1.000000
783.120300	-1.000000
783.071594	-1.000000
783.022949	-1.000000
782.974304	-1.000000
782.925659	-1.000000
782.877014	-1.000000
782.828369	-1.000000
782.779663	-1.000000
782.731018	-1.000000
782.682373	-1.000000
782.633667	-1.000000
782.585022	-1.000000
782.536377	-1.000000
782.487671	-1.000000
782.439026	-1.000000
782.390320	-1.000000
782.341614	-1.000000
782.292969	-1.000000
782.244263	-1.000000
782.195557	-1.000000
782.146912	-1.000000
782.098206	-1.000000
782.049500	-1.000000
782.000854	-1.000000
781.952087	-1.000000
781.903442	-1.000000
781.854736	-1.000000
781.806030	-1.000000
781.757324	-1.000000
781.708618	-1.000000
781.659912	-1.000000
781.611206	-1.000000
781.562500	-1.000000
781.513794	-1.000000
781.465027	-1.000000
781.416382	-1.000000
781.367615	-1.000000
781.318909	-1.000000
781.270203	-1.000000
781.221436	-1.000000
781.172791	-1.000000
781.124023	-1.000000
781.075256	-1.000000
781.026550	-1.000000
780.977844	-1.000000
780.929077	-1.000000
780.880310	-1.000000
780.831604	-1.000000
780.782837	-1.000000
780.734131	-1.000000
780.685364	-1.000000
780.636597	-1.000000
780.587891	-1.000000
780.539062	-1.000000
780.490356	-1.000000
780.441589	-1.000000
780.392822	-1.000000
780.344055	-1.000000
780.295288	-1.000000
780.246521	-1.000000
780.197815	-1.000000
780.148987	-1.000000
780.100281	-1.000000
780.051453	-1.000000
780.002686	-1.000000
779.953918	-1.000000
779.905151	-1.000000
779.856384	-1.000000
779.807556	-1.000000
779.758789	-1.000000
779.710022	-1.000000
779.661194	-1.000000
779.612427	-1.000000
779.563599	-1.000000
779.514832	-1.000000
779.466003	-1.000000
779.417236	-1.000000
779.368408	-1.000000
779.319580	-1.000000
779.270813	-1.000000
779.221985	-1.000000
779.173218	-1.000000
779.124390	-1.000000
779.075562	-1.000000
779.026733	-1.000000
778.977966	-1.000000
778.929138	-1.000000
778.880310	-1.000000
778.831482	-1.000000
778.782593	-1.000000
778.733826	-1.000000
778.684937	-1.000000
778.636108	-1.000000
778.587341	-1.000000
778.538513	-1.000000
778.489624	-1.000000
778.440796	-1.000000
778.391968	-1.000000
778.343079	-1.000000
778.294250	-1.000000
778.245422	-1.000000
778.196594	-1.000000
778.147705	-1.000000
778.098816	-1.000000
778.049988	-1.000000
778.001099	-1.000000
777.952271	-1.000000
777.903381	-1.000000
777.854553	-1.000000
777.805664	-1.000000
777.756836	-1.000000
777.707886	-1.000000
777.659058	-1.000000
777.610168	-1.000000
777.561279	-1.000000
777.512451	-1.000000
777.463562	-1.000000
777.414673	-1.000000
777.365784	-1.000000
777.316895	-1.000000
777.268005	-1.000000
777.219116	-1.000000
777.170227	-1.000000
777.121277	-1.000000
777.072388	-1.000000
777.023560	-1.000000
776.974670	-1.000000
776.925720	-1.000000
776.876831	-1.000000
776.827881	-1.000000
776.778992	-1.000000
776.730103	-1.000000
776.681152	-1.000000
776.632263	-1.000000
776.583313	-1.000000
776.534424	-1.000000
776.485535	-1.000000
776.436584	-1.000000
776.387695	-1.000000
776.338684	-1.000000
776.289795	-1.000000
776.240906	-1.000000
776.191956	-1.000000
776.143005	-1.000000
776.094055	-1.000000
776.045105	-1.000000
775.996216	-1.000000
775.947266	-1.000000
775.898315	-1.000000
775.849365	-1.000000
775.800415	-1.000000
775.751465	-1.000000
775.702515	-1.000000
775.653564	-1.000000
775.604553	-1.000000
775.555664	-1.000000
775.506653	-1.000000
775.457703	-1.000000
775.408752	-1.000000
775.359802	-1.000000
775.310852	-1.000000
775.261841	-1.000000
775.212891	-1.000000
775.163879	-1.000000
775.114929	-1.000000
775.065918	-1.000000
775.016968	-1.000000
774.968018	-1.000000
774.918945	-1.000000
774.869995	-1.000000
774.820984	-1.000000
774.772034	-1.000000
774.723022	-1.000000
774.674011	-1.000000
774.625061	-1.000000
774.576050	-1.000000
774.527039	-1.000000
774.478027	-1.000000
774.429016	-1.000000
774.380005	-1.000000
774.330994	-1.000000
774.281982	-1.000000
774.232971	-1.000000
774.183960	-1.000000
774.134949	-1.000000
774.085876	-1.000000
774.036926	-1.000000
773.987915	-1.000000
773.938904	-1.000000
773.889832	-1.000000
773.840820	-1.000000
773.791809	-1.000000
773.742737	-1.000000
773.693665	-1.000000
773.644653	-1.000000
773.595581	-1.000000
773.546570	-1.000000
773.497559	-1.000000
773.448486	-1.000000
773.399475	-1.000000
773.350403	-1.000000
773.301331	-1.000000
773.252319	-1.000000
773.203247	-1.000000
773.154236	-1.000000
773.105103	-1.000000
773.056030	-1.000000
773.007019	-1.000000
772.957947	-1.000000
772.908875	-1.000000
772.859802	-1.000000
772.810730	-1.000000
772.761658	-1.000000
772.712585	-1.000000
772.663513	-1.000000
772.614441	-1.000000
772.565369	-1.000000
772.516296	-1.000000
772.467163	-1.000000
772.418091	-1.000000
772.368958	-1.000000
772.319946	-1.000000
772.270813	-1.000000
772.221741	-1.000000
772.172668	-1.000000
772.123535	-1.000000
772.074402	-1.000000
772.025330	-1.000000
771.976257	-1.000000
771.927124	-1.000000
771.877991	-1.000000
771.828918	-1.000000
771.779785	-1.000000
771.730652	-1.000000
771.681580	-1.000000
771.632446	-1.000000
771.583313	-1.000000
771.534180	-1.000000
771.485046	-1.000000
771.435974	-1.000000
771.386780	-1.000000
771.337708	-1.000000
771.288513	-1.000000
771.239380	-1.000000
771.190247	-1.000000
771.141113	-1.000000
771.091980	-1.000000
771.042908	-1.000000
770.993713	-1.000000
770.944519	-1.000000
770.895447	-1.000000
770.846313	-1.000000
770.797119	-1.000000
770.747925	-1.000000
770.698792	-1.000000
770.649658	-1.000000
770.600525	-1.000000
770.551331	-1.000000
770.502197	-1.000000
770.453003	-1.000000
770.403870	-1.000000
770.354675	-1.000000
770.305481	-1.000000
770.256287	-1.000000
770.207153	-1.000000
770.157959	-1.000000
770.108765	-1.000000
770.059631	-1.000000
770.010437	-1.000000
769.961243	-1.000000
769.912048	-1.000000
769.862854	-1.000000
769.813660	-1.000000
769.764465	-1.000000
769.715271	-1.000000
769.666077	-1.000000
769.616882	-1.000000
769.567688	-1.000000
769.518494	-1.000000
769.469238	-1.000000
769.420044	-1.000000
769.370850	-1.000000
769.321594	-1.000000
769.272461	-1.000000
769.223206	-1.000000
769.173950	-1.000000
769.124817	-1.000000
769.075562	-1.000000
769.026306	-1.000000
768.977112	-1.000000
768.927856	-1.000000
768.878662	-1.000000
768.829407	-1.000000
768.780212	-1.000000
768.730957	-1.000000
768.681763	-1.000000
768.632446	-1.000000
768.583252	-1.000000
768.533997	-1.000000
768.484741	-1.000000
768.435486	-1.000000
768.386230	-1.000000
768.337036	-1.000000
768.287781	-1.000000
768.238525	-1.000000
768.189209	-1.000000
768.140015	-1.000000
768.090759	-1.000000
768.041443	-1.000000
767.992188	-1.000000
767.942932	-1.000000
767.893677	-1.000000
767.844421	-1.000000
767.795105	-1.000000
767.745850	-1.000000
767.696594	-1.000000
767.647278	-1.000000
767.598022	-1.000000
767.548767	-1.000000
767.499451	-1.000000
767.450134	-1.000000
767.400879	-1.000000
767.351562	-1.000000
767.302307	-1.000000
767.252991	-1.000000
767.203735	-1.000000
767.154419	-1.000000
767.105103	-1.000000
767.055786	-1.000000
767.006470	-1.000000
766.957214	-1.000000
766.907837	-1.000000
766.858582	-1.000000
766.809265	-1.000000
766.759949	-1.000000
766.710632	-1.000000
766.661316	-1.000000
766.612000	-1.000000
766.562683	-1.000000
766.513367	-1.000000
766.464050	-1.000000
766.414673	-1.000000
766.365356	-1.000000
766.316040	-1.000000
766.266724	-1.000000
766.217346	-1.000000
766.168030	-1.000000
766.118713	-1.000000
766.069336	-1.000000
766.020020	-1.000000
765.970703	-1.000000
765.921326	-1.000000
765.871948	-1.000000
765.822632	-1.000000
765.773254	-1.000000
765.723938	-1.000000
765.674561	-1.000000
765.625244	-1.000000
765.575867	-1.000000
765.526489	-1.000000
765.477112	-1.000000
765.427795	-1.000000
765.378418	-1.000000
765.329041	-1.000000
765.279663	-1.000000
765.230286	-1.000000
765.180908	-1.000000
765.131531	-1.000000
765.082153	-1.000000
765.032715	-1.000000
764.983337	-1.000000
764.934021	-1.000000
764.884644	-1.000000
764.835205	-1.000000
764.785828	-1.000000
764.736450	-1.000000
764.687073	-1.000000
764.637634	-1.000000
764.588257	-1.000000
764.538818	-1.000000
764.489441	-1.000000
764.440063	-1.000000
764.390625	-1.000000
764.341187	-1.000000
764.291809	-1.000000
764.242432	-1.000000
764.192932	-1.000000
764.143555	-1.000000
764.094116	-1.000000
764.044739	-1.000000
763.995300	-1.000000
763.945862	-1.000000
763.896484	-1.000000
763.847046	-1.000000
763.797607	-1.000000
763.748169	-1.000000
763.698730	-1.000000
763.649292	-1.000000
763.599854	-1.000000
763.550415	-1.000000
763.500977	-1.000000
763.451538	-1.000000
763.402100	-1.000000
763.352661	-1.000000
763.303162	-1.000000
763.253723	-1.000000
763.204285	-1.000000
763.154846	-1.000000
763.105408	-1.000000
763.055908	-1.000000
763.006470	-1.000000
762.957031	-1.000000
762.907532	-1.000000
762.858032	-1.000000
762.808594	-1.000000
762.759094	-1.000000
762.709656	-1.000000
762.660156	-1.000000
762.610718	-1.000000
762.561218	-1.000000
762.511780	-1.000000
762.462280	-1.000000
762.412781	-1.000000
762.363342	-1.000000
762.313843	-1.000000
762.264343	-1.000000
762.214783	-1.000000
762.165344	-1.000000
762.115845	-1.000000
762.066345	-1.000000
762.016846	-1.000000
761.967346	-1.000000
761.917847	-1.000000
761.868286	-1.000000
761.818848	-1.000000
761.769287	-1.000000
761.719788	-1.000000
761.670288	-1.000000
761.620789	-1.000000
761.571228	-1.000000
761.521729	-1.000000
761.472229	-1.000000
761.422668	-1.000000
761.373169	-1.000000
761.323608	-1.000000
761.274109	-1.000000
761.224609	-1.000000
761.175049	-1.000000
761.125488	-1.000000
761.075989	-1.000000
761.026489	-1.000000
760.976929	-1.000000
760.927307	-1.000000
760.877808	-1.000000
760.828308	-1.000000
760.778687	-1.000000
760.729187	-1.000000
760.679626	-1.000000
760.630066	-1.000000
760.580566	-1.000000
760.530945	-1.000000
760.481384	-1.000000
760.431824	-1.000000
760.382263	-1.000000
760.332703	-1.000000
760.283142	-1.000000
760.233521	-1.000000
760.184021	-1.000000
760.134460	-1.000000
760.084839	-1.000000
760.035278	-1.000000
759.985657	-1.000000
759.936096	-1.000000
759.886536	-1.000000
759.836975	-1.000000
759.787354	-1.000000
759.737732	-1.000000
759.688232	-1.000000
759.638611	-1.000000
759.588989	-1.000000
759.539368	-1.000000
759.489807	-1.000000
759.440186	-1.000000
759.390564	-1.000000
759.341003	-1.000000
759.291443	-1.000000
759.241760	-1.000000
759.192200	-1.000000
759.142578	-1.000000
759.092957	-1.000000
759.043335	-1.000000
758.993713	-1.000000
758.944092	-1.000000
758.894470	-1.000000
758.844849	-1.000000
758.795227	-1.000000
758.745667	-1.000000
758.695984	-1.000000
758.646362	-1.000000
758.596741	-1.000000
758.547058	-1.000000
758.497437	-1.000000
758.447815	-1.000000
758.398193	-1.000000
758.348511	-1.000000
758.298889	-1.000000
758.249268	-1.000000
758.199646	-1.000000
758.149963	-1.000000
758.100281	-1.000000
758.050659	-1.000000
758.000977	-1.000000
757.951355	-1.000000
757.901672	-1.000000
757.851990	-1.000000
757.802368	-1.000000
757.752686	-1.000000
757.703003	-1.000000
757.653320	-1.000000
757.603699	-1.000000
757.554016	-1.000000
757.504333	-1.000000
757.454651	-1.000000
757.404968	-1.000000
757.355286	-1.000000
757.305603	-1.000000
757.255920	-1.000000
757.206238	-1.000000
757.156616	-1.000000
757.106873	-1.000000
757.057190	-1.000000
757.007446	-1.000000
756.957764	-1.000000
756.908081	-1.000000
756.858398	-1.000000
756.808716	-1.000000
756.758972	-1.000000
756.709290	-1.000000
756.659607	-1.000000
756.609924	-1.000000
756.560120	-1.000000
756.510437	-1.000000
756.460693	-1.000000
756.411072	-1.000000
756.361328	-1.000000
756.311584	-1.000000
756.261902	-1.000000
756.212097	-1.000000
756.162415	-1.000000
756.112671	-1.000000
756.062927	-1.000000
756.013184	-1.000000
755.963501	-1.000000
755.913757	-1.000000
755.864014	-1.000000
755.814270	-1.000000
755.764587	-1.000000
755.714844	-1.000000
755.665100	-1.000000
755.615356	-1.000000
755.565552	-1.000000
755.515808	-1.000000
755.466064	-1.000000
755.416321	-1.000000
755.366577	-1.000000
755.316833	-1.000000
755.267029	-1.000000
755.217285	-1.000000
755.167542	-1.000000
755.117737	-1.000000
755.067993	-1.000000
755.018188	-1.000000
754.968445	-1.000000
754.918701	-1.000000
754.868896	-1.000000
754.819092	-1.000000
754.769348	-1.000000
754.719543	-1.000000
754.669739	-1.000000
754.619995	-1.000000
754.570190	-1.000000
754.520386	-1.000000
754.470642	-1.000000
754.420837	-1.000000
754.371033	-1.000000
754.321228	-1.000000
754.271484	-1.000000
754.221619	-1.000000
754.171875	-1.000000
754.122070	-1.000000
754.072205	-1.000000
754.022400	-1.000000
753.972595	-1.000000
753.922852	-1.000000
753.872986	-1.000000
753.823181	-1.000000
753.773376	-1.000000
753.723572	-1.000000
753.673706	-1.000000
753.623901	-1.000000
753.574097	-1.000000
753.524292	-1.000000
753.474426	-1.000000
753.424561	-1.000000
753.374756	-1.000000
753.324951	-1.000000
753.275085	-1.000000
753.225281	-1.000000
753.175415	-1.000000
753.125610	-1.000000
753.075745	-1.000000
753.025879	-1.000000
752.976074	-1.000000
752.926208	-1.000000
752.876343	-1.000000
752.826477	-1.000000
752.776672	-1.000000
752.726807	-1.000000
752.676941	-1.000000
752.627075	-1.000000
752.577209	-1.000000
752.527344	-1.000000
752.477539	-1.000000
752.427673	-1.000000
752.377808	-1.000000
752.327881	-1.000000
752.278015	-1.000000
752.228149	-1.000000
752.178284	-1.000000
752.128357	-1.000000
752.078491	-1.000000
752.028625	-1.000000
751.978760	-1.000000
751.928833	-1.000000
751.878967	-1.000000
751.829102	-1.000000
751.779175	-1.000000
751.729309	-1.000000
751.679382	-1.000000
751.629456	-1.000000
751.579590	-1.000000
751.529663	-1.000000
751.479797	-1.000000
751.429871	-1.000000
751.379944	-1.000000
751.330078	-1.000000
751.280212	-1.000000
751.230225	-1.000000
751.180298	-1.000000
751.130371	-1.000000
751.080505	-1.000000
751.030579	-1.000000
750.980652	-1.000000
750.930725	-1.000000
750.880859	-1.000000
750.830872	-1.000000
750.780945	-1.000000
750.731018	-1.000000
750.681091	-1.000000
750.631165	-1.000000
750.581177	-1.000000
750.531311	-1.000000
750.481384	-1.000000
750.431396	-1.000000
750.381409	-1.000000
750.331482	-1.000000
750.281616	-1.000000
750.231628	-1.000000
750.181641	-1.000000
750.131714	-1.000000
750.081787	-1.000000
750.031799	-1.000000
749.981812	-1.000000
749.931885	-1.000000
749.881958	-1.000000
749.831970	-1.000000
749.781982	-1.000000
749.732056	-1.000000
749.682068	-1.000000
749.632080	-1.000000
749.582092	-1.000000
749.532104	-1.000000
749.482178	-1.000000
749.432190	-1.000000
749.382202	-1.000000
749.332214	-1.000000
749.282227	-1.000000
749.232239	-1.000000
749.182251	-1.000000
749.132263	-1.000000
749.082275	-1.000000
749.032288	-1.000000
748.982239	-1.000000
748.932312	-1.000000
748.882263	-1.000000
748.832275	-1.000000
748.782288	-1.000000
748.732239	-1.000000
748.682251	-1.000000
748.632263	-1.000000
748.582214	-1.000000
748.532227	-1.000000
748.482178	-1.000000
748.432190	-1.000000
748.382141	-1.000000
748.332153	-1.000000
748.282104	-1.000000
748.232117	-1.000000
748.182068	-1.000000
748.132080	-1.000000
748.082031	-1.000000
748.031982	-1.000000
747.981934	-1.000000
747.931885	-1.000000
747.881836	-1.000000
747.831848	-1.000000
747.781799	-1.000000
747.731812	-1.000000
747.681702	-1.000000
747.631653	-1.000000
747.581604	-1.000000
747.531555	-1.000000
747.481567	-1.000000
747.431458	-1.000000
747.381409	-1.000000
747.331360	-1.000000
747.281311	-1.000000
747.231201	-1.000000
747.181152	-1.000000
747.131104	-1.000000
747.081055	-1.000000
747.030945	-1.000000
746.980957	-1.000000
746.930847	-1.000000
746.880798	-1.000000
746.830688	-1.000000
746.780640	-1.000000
746.730530	-1.000000
746.680420	-1.000000
746.630310	-1.000000
746.580261	-1.000000
746.530212	-1.000000
746.480103	-1.000000
746.429993	-1.000000
746.379883	-1.000000
746.329834	-1.000000
746.279724	-1.000000
746.229614	-1.000000
746.179504	-1.000000
746.129456	-1.000000
746.079346	-1.000000
746.029236	-1.000000
745.979126	-1.000000
745.929016	-1.000000
745.878906	-1.000000
745.828796	-1.000000
745.778687	-1.000000
745.728577	-1.000000
745.678406	-1.000000
745.628296	-1.000000
745.578186	-1.000000
745.528076	-1.000000
745.477966	-1.000000
745.427795	-1.000000
745.377686	-1.000000
745.327576	-1.000000
745.277405	-1.000000
745.227295	-1.000000
745.177124	-1.000000
745.127014	-1.000000
745.076904	-1.000000
745.026733	-1.000000
744.976562	-1.000000
744.926453	-1.000000
744.876282	-1.000000
744.826111	-1.000000
744.775940	-1.000000
744.725830	-1.000000
744.675659	-1.000000
744.625488	-1.000000
744.575378	-1.000000
744.525208	-1.000000
744.475037	-1.000000
744.424866	-1.000000
744.374695	-1.000000
744.324524	-1.000000
744.274353	-1.000000
744.224182	-1.000000
744.174011	-1.000000
744.123840	-1.000000
744.073669	-1.000000
744.023499	-1.000000
743.973267	-1.000000
743.923157	-1.000000
743.872925	-1.000000
743.822754	-1.000000
743.772583	-1.000000
743.722351	-1.000000
743.672180	-1.000000
743.622009	-1.000000
743.571777	-1.000000
743.521606	-1.000000
743.471375	-1.000000
743.421204	-1.000000
743.370972	-1.000000
743.320801	-1.000000
743.270569	-1.000000
743.220398	-1.000000
743.170166	-1.000000
743.119995	-1.000000
743.069702	-1.000000
743.019531	-1.000000
742.969299	-1.000000
742.919067	-1.000000
742.868835	-1.000000
742.818604	-1.000000
742.768433	-1.000000
742.718201	-1.000000
742.667969	-1.000000
742.617737	-1.000000
742.567505	-1.000000
742.517273	-1.000000
742.467041	-1.000000
742.416809	-1.000000
742.366577	-1.000000
742.316345	-1.000000
742.266052	-1.000000
742.215820	-1.000000
742.165588	-1.000000
742.115356	-1.000000
742.065063	-1.000000
742.014832	-1.000000
741.964600	-1.000000
741.914307	-1.000000
741.864075	-1.000000
741.813782	-1.000000
741.763489	-1.000000
741.713257	-1.000000
741.662964	-1.000000
741.612732	-1.000000
741.562439	-1.000000
741.512207	-1.000000
741.461914	-1.000000
741.411682	-1.000000
741.361389	-1.000000
741.311096	-1.000000
741.260803	-1.000000
741.210510	-1.000000
741.160278	-1.000000
741.109985	-1.000000
741.059692	-1.000000
741.009399	-1.000000
740.959106	-1.000000
740.908813	-1.000000
740.858521	-1.000000
740.808228	-1.000000
740.757935	-1.000000
740.707642	-1.000000
740.657349	-1.000000
740.606995	-1.000000
740.556702	-1.000000
740.506409	-1.000000
740.456116	-1.000000
740.405762	-1.000000
740.355469	-1.000000
740.305176	-1.000000
740.254822	-1.000000
740.204529	-1.000000
740.154175	-1.000000
740.103882	-1.000000
740.053589	-1.000000
740.003235	-1.000000
739.952942	-1.000000
739.902588	-1.000000
739.852295	-1.000000
739.801941	-1.000000
739.751587	-1.000000
739.701233	-1.000000
739.650879	-1.000000
739.600586	-1.000000
739.550232	-1.000000
739.499878	-1.000000
739.449524	-1.000000
739.399170	-1.000000
739.348816	-1.000000
739.298523	-1.000000
739.248108	-1.000000
739.197815	-1.000000
739.147461	-1.000000
739.097046	-1.000000
739.046692	-1.000000
738.996399	-1.000000
738.945984	-1.000000
738.895630	-1.000000
738.845276	-1.000000
738.794861	-1.000000
738.744507	-1.000000
738.694153	-1.000000
738.643738	-1.000000
738.593384	-1.000000
738.543030	-1.000000
738.492615	-1.000000
738.442261	-1.000000
738.391846	-1.000000
738.341492	-1.000000
738.291077	-1.000000
738.240662	-1.000000
738.190369	-1.000000
738.139954	-1.000000
738.089539	-1.000000
738.039124	-1.000000
737.988770	-1.000000
737.938354	-1.000000
737.887939	-1.000000
737.837524	-1.000000
737.787109	-1.000000
737.736755	-1.000000
737.686340	-1.000000
737.635925	-1.000000
737.585510	-1.000000
737.535095	-1.000000
737.484680	-1.000000
737.434265	-1.000000
737.383850	-1.000000
737.333374	-1.000000
737.282959	-1.000000
737.232544	-1.000000
737.182129	-1.000000
737.131714	-1.000000
737.081299	-1.000000
737.030823	-1.000000
736.980408	-1.000000
736.929993	-1.000000
736.879517	-1.000000
736.829102	-1.000000
736.778625	-1.000000
736.728210	-1.000000
736.677795	-1.000000
736.627319	-1.000000
736.576904	-1.000000
736.526428	-1.000000
736.475952	-1.000000
736.425537	-1.000000
736.375061	-1.000000
736.324585	-1.000000
736.274170	-1.000000
736.223694	-1.000000
736.173218	-1.000000
736.122803	-1.000000
736.072266	-1.000000
736.021851	-1.000000
735.971375	-1.000000
735.920898	-1.000000
735.870361	-1.000000
735.819946	-1.000000
735.769470	-1.000000
735.718994	-1.000000
735.668518	-1.000000
735.618042	-1.000000
735.567566	-1.000000
735.517029	-1.000000
735.466553	-1.000000
735.416077	-1.000000
735.365540	-1.000000
735.315063	-1.000000
735.264587	-1.000000
735.214111	-1.000000
735.163635	-1.000000
735.113098	-1.000000
735.062622	-1.000000
735.012146	-1.000000
734.961609	-1.000000
734.911133	-1.000000
734.860596	-1.000000
734.810059	-1.000000
734.759521	-1.000000
734.709045	-1.000000
734.658508	-1.000000
734.608032	-1.000000
734.557495	-1.000000
734.506958	-1.000000
734.456421	-1.000000
734.405884	-1.000000
734.355408	-1.000000
734.304871	-1.000000
734.254333	-1.000000
734.203796	-1.000000
734.153259	-1.000000
734.102722	-1.000000
734.052185	-1.000000
734.001648	-1.000000
733.951111	-1.000000
733.900574	-1.000000
733.850037	-1.000000
733.799500	-1.000000
733.748962	-1.000000
733.698364	-1.000000
733.647827	-1.000000
733.597229	-1.000000
733.546692	-1.000000
733.496155	-1.000000
733.445618	-1.000000
733.395020	-1.000000
733.344482	-1.000000
733.293884	-1.000000
733.243347	-1.000000
733.192810	-1.000000
733.142212	-1.000000
733.091614	-1.000000
733.041077	-1.000000
732.990479	-1.000000
732.939880	-1.000000
732.889343	-1.000000
732.838745	-1.000000
732.788147	-1.000000
732.737610	-1.000000
732.687012	-1.000000
732.636414	-1.000000
732.585815	-1.000000
732.535217	-1.000000
732.484680	-1.000000
732.434021	-1.000000
732.383423	-1.000000
732.332825	-1.000000
732.282227	-1.000000
732.231628	-1.000000
732.181030	-1.000000
732.130432	-1.000000
732.079834	-1.000000
732.029175	-1.000000
731.978577	-1.000000
731.927979	-1.000000
731.877380	-1.000000
731.826782	-1.000000
731.776184	-1.000000
731.725525	-1.000000
731.674866	-1.000000
731.624268	-1.000000
731.573608	-1.000000
731.523071	-1.000000
731.472412	-1.000000
731.421753	-1.000000
731.371155	-1.000000
731.320496	-1.000000
731.269897	-1.000000
731.219238	-1.000000
731.168579	-1.000000
731.117981	-1.000000
731.067322	-1.000000
731.016663	-1.000000
730.966003	-1.000000
730.915344	-1.000000
730.864685	-1.000000
730.814087	-1.000000
730.763428	-1.000000
730.712769	-1.000000
730.662109	-1.000000
730.611450	-1.000000
730.560791	-1.000000
730.510132	-1.000000
730.459473	-1.000000
730.408813	-1.000000
730.358154	-1.000000
730.307434	-1.000000
730.256775	-1.000000
730.206116	-1.000000
730.155457	-1.000000
730.104797	-1.000000
730.054077	-1.000000
730.003418	-1.000000
729.952698	-1.000000
729.902039	-1.000000
729.851379	-1.000000
729.800659	-1.000000
729.750000	-1.000000
729.699280	-1.000000
729.648621	-1.000000
729.597900	-1.000000
729.547241	-1.000000
729.496521	-1.000000
729.445862	-1.000000
729.395142	-1.000000
729.344421	-1.000000
729.293701	-1.000000
729.242981	-1.000000
729.192322	-1.000000
729.141541	-1.000000
729.090820	-1.000000
729.040161	-1.000000
728.989441	-1.000000
728.938721	-1.000000
728.888062	-1.000000
728.837280	-1.000000
728.786560	-1.000000
728.735840	-1.000000
728.685120	-1.000000
728.634338	-1.000000
728.583679	-1.000000
728.532898	-1.000000
728.482178	-1.000000
728.431458	-1.000000
728.380737	-1.000000
728.330017	-1.000000
728.279236	-1.000000
728.228516	-1.000000
728.177795	-1.000000
728.127014	-1.000000
728.076233	-1.000000
728.025513	-1.000000
727.974731	-1.000000
727.924011	-1.000000
727.873291	-1.000000
727.822510	-1.000000
727.771790	-1.000000
727.721008	-1.000000
727.670288	-1.000000
727.619507	-1.000000
727.568726	-1.000000
727.517944	-1.000000
727.467163	-1.000000
727.416382	-1.000000
727.365601	-1.000000
727.314880	-1.000000
727.264099	-1.000000
727.213318	-1.000000
727.162537	-1.000000
727.111755	-1.000000
727.060974	-1.000000
727.010193	-1.000000
726.959351	-1.000000
726.908630	-1.000000
726.857849	-1.000000
726.807007	-1.000000
726.756226	-1.000000
726.705444	-1.000000
726.654663	-1.000000
726.603882	-1.000000
726.553040	-1.000000
726.502258	-1.000000
726.451416	-1.000000
726.400635	-1.000000
726.349854	-1.000000
726.299011	-1.000000
726.248230	-1.000000
726.197388	-1.000000
726.146606	-1.000000
726.095764	-1.000000
726.044922	-1.000000
725.994141	-1.000000
725.943359	-1.000000
725.892517	-1.000000
725.841675	-1.000000
725.790833	-1.000000
725.739990	-1.000000
725.689209	-1.000000
725.638367	-1.000000
725.587524	-1.000000
725.536682	-1.000000
725.485840	-1.000000
725.434998	-1.000000
725.384216	-1.000000
725.333313	-1.000000
725.282532	-1.000000
725.231689	-1.000000
725.180847	-1.000000
725.130005	-1.000000
725.079102	-1.000000
725.028259	-1.000000
724.977417	-1.000000
724.926575	-1.000000
724.875671	-1.000000
724.824829	-1.000000
724.773926	-1.000000
724.723145	-1.000000
724.672241	-1.000000
724.621399	-1.000000
724.570496	-1.000000
724.519653	-1.000000
724.468811	-1.000000
724.417908	-1.000000
724.367004	-1.000000
724.316162	-1.000000
724.265259	-1.000000
724.214417	-1.000000
724.163513	-1.000000
724.112671	-1.000000
724.061768	-1.000000
724.010864	-1.000000
723.960022	-1.000000
723.909058	-1.000000
723.858215	-1.000000
723.807312	-1.000000
723.756409	-1.000000
723.705505	-1.000000
723.654602	-1.000000
723.603699	-1.000000
723.552795	-1.000000
723.501892	-1.000000
723.451050	-1.000000
723.400085	-1.000000
723.349182	-1.000000
723.298279	-1.000000
723.247375	-1.000000
723.196411	-1.000000
723.145508	-1.000000
723.094604	-1.000000
723.043701	-1.000000
722.992798	-1.000000
722.941833	-1.000000
722.890930	-1.000000
722.839966	-1.000000
722.789062	-1.000000
722.738159	-1.000000
722.687195	-1.000000
722.636230	-1.000000
722.585388	-1.000000
722.534424	-1.000000
722.483459	-1.000000
722.432556	-1.000000
722.381592	-1.000000
722.330688	-1.000000
722.279724	-1.000000
722.228760	-1.000000
722.177795	-1.000000
722.126831	-1.000000
722.075867	-1.000000
722.024963	-1.000000
721.973999	-1.000000
721.923035	-1.000000
721.872070	-1.000000
721.821106	-1.000000
721.770142	-1.000000
721.719177	-1.000000
721.668213	-1.000000
721.617249	-1.000000
721.566284	-1.000000
721.515320	-1.000000
721.464294	-1.000000
721.413330	-1.000000
721.362366	-1.000000
721.311401	-1.000000
721.260437	-1.000000
721.209473	-1.000000
721.158447	-1.000000
721.107483	-1.000000
721.056458	-1.000000
721.005493	-1.000000
720.954468	-1.000000
720.903564	-1.000000
720.852539	-1.000000
720.801514	-1.000000
720.750549	-1.000000
720.699524	-1.000000
720.648560	-1.000000
720.597534	-1.000000
720.546509	-1.000000
720.495544	-1.000000
720.444519	-1.000000
720.393555	-1.000000
720.342529	-1.000000
720.291504	-1.000000
720.240479	-1.000000
720.189453	-1.000000
720.138428	-1.000000
720.087402	-1.000000
720.036438	-1.000000
719.985352	-1.000000
719.934326	-1.000000
719.883362	-1.000000
719.832275	-1.000000
719.781250	-1.000000
719.730225	-1.000000
719.679199	-1.000000
719.628174	-1.000000
719.577148	-1.000000
719.526123	-1.000000
719.475037	-1.000000
719.424011	-1.000000
719.372986	-1.000000
719.321899	-1.000000
719.270874	-1.000000
719.219788	-1.000000
719.168823	-1.000000
719.117737	-1.000000
719.066711	-1.000000
719.015625	-1.000000
718.964539	-1.000000
718.913513	-1.000000
718.862427	-1.000000
718.811401	-1.000000
718.760315	-1.000000
718.709290	-1.000000
718.658142	-1.000000
718.607117	-1.000000
718.556030	-1.000000
718.505005	-1.000000
718.453918	-1.000000
718.402771	-1.000000
718.351746	-1.000000
718.300659	-1.000000
718.249573	-1.000000
718.198486	-1.000000
718.147400	-1.000000
718.096313	-1.000000
718.045227	-1.000000
717.994141	-1.000000
717.943054	-1.000000
717.891968	-1.000000
717.840881	-1.000000
717.789795	-1.000000
717.738708	-1.000000
717.687561	-1.000000
717.636475	-1.000000
717.585388	-1.000000
717.534302	-1.000000
717.483154	-1.000000
717.432007	-1.000000
717.380920	-1.000000
717.329834	-1.000000
717.278687	-1.000000
717.227600	-1.000000
717.176453	-1.000000
717.125366	-1.000000
717.074219	-1.000000
717.023132	-1.000000
716.971985	-1.000000
716.920837	-1.000000
716.869751	-1.000000
716.818604	-1.000000
716.767517	-1.000000
716.716370	-1.000000
716.665222	-1.000000
716.614136	-1.000000
716.562988	-1.000000
716.511841	-1.000000
716.460693	-1.000000
716.409485	-1.000000
716.358398	-1.000000
716.307251	-1.000000
716.256042	-1.000000
716.204895	-1.000000
716.153809	-1.000000
716.102661	-1.000000
716.051453	-1.000000
716.000366	-1.000000
715.949158	-1.000000
715.898010	-1.000000
715.846863	-1.000000
715.795715	-1.000000
715.744507	-1.000000
715.693359	-1.000000
715.642151	-1.000000
715.591003	-1.000000
715.539856	-1.000000
715.488647	-1.000000
715.437500	-1.000000
715.386353	-1.000000
715.335144	-1.000000
715.283936	-1.000000
715.232788	-1.000000
715.181580	-1.000000
715.130432	-1.000000
715.079285	-1.000000
715.028015	-1.000000
714.976868	-1.000000
714.925659	-1.000000
714.874451	-1.000000
714.823303	-1.000000
714.772095	-1.000000
714.720886	-1.000000
714.669678	-1.000000
714.618469	-1.000000
714.567261	-1.000000
714.516052	-1.000000
714.464905	-1.000000
714.413635	-1.000000
714.362427	-1.000000
714.311218	-1.000000
714.260010	-1.000000
714.208801	-1.000000
714.157593	-1.000000
714.106384	-1.000000
714.055176	-1.000000
714.003906	-1.000000
713.952698	-1.000000
713.901489	-1.000000
713.850281	-1.000000
713.799011	-1.000000
713.747803	-1.000000
713.696594	-1.000000
713.645325	-1.000000
713.594055	-1.000000
713.542847	-1.000000
713.491577	-1.000000
713.440369	-1.000000
713.389160	-1.000000
713.337891	-1.000000
713.286621	-1.000000
713.235413	-1.000000
713.184143	-1.000000
713.132874	-1.000000
713.081665	-1.000000
713.030396	-1.000000
712.979126	-1.000000
712.927917	-1.000000
712.876648	-1.000000
712.825378	-1.000000
712.774109	-1.000000
712.722778	-1.000000
712.671570	-1.000000
712.620300	-1.000000
712.569031	-1.000000
712.517761	-1.000000
712.466492	-1.000000
712.415222	-1.000000
712.363953	-1.000000
712.312622	-1.000000
712.261353	-1.000000
712.210083	-1.000000
712.158813	-1.000000
712.107544	-1.000000
712.056213	-1.000000
712.004944	-1.000000
711.953674	-1.000000
711.902344	-1.000000
711.851074	-1.000000
711.799805	-1.000000
711.748474	-1.000000
711.697144	-1.000000
711.645874	-1.000000
711.594604	-1.000000
711.543274	-1.000000
711.492004	-1.000000
711.440674	-1.000000
711.389404	-1.000000
711.338074	-1.000000
711.286743	-1.000000
711.235413	-1.000000
711.184082	-1.000000
711.132812	-1.000000
711.081482	-1.000000
711.030212	-1.000000
710.978821	-1.000000
710.927490	-1.000000
710.876221	-1.000000
710.824829	-1.000000
710.773560	-1.000000
710.722229	-1.000000
710.670898	-1.000000
710.619568	-1.000000
710.568237	-1.000000
710.516907	-1.000000
710.465515	-1.000000
710.414185	-1.000000
710.362854	-1.000000
710.311523	-1.000000
710.260193	-1.000000
710.208862	-1.000000
710.157471	-1.000000
710.106140	-1.000000
710.054810	-1.000000
710.003418	-1.000000
709.952087	-1.000000
709.900757	-1.000000
709.849365	-1.000000
709.797974	-1.000000
709.746643	-1.000000
709.695251	-1.000000
709.643921	-1.000000
709.592529	-1.000000
709.541199	-1.000000
709.489807	-1.000000
709.438477	-1.000000
709.387024	-1.000000
709.335693	-1.000000
709.284302	-1.000000
709.232910	-1.000000
709.181519	-1.000000
709.130188	-1.000000
709.078796	-1.000000
709.027405	-1.000000
708.976013	-1.000000
708.924622	-1.000000
708.873230	-1.000000
708.821838	-1.000000
708.770447	-1.000000
708.719116	-1.000000
708.667664	-1.000000
708.616272	-1.000000
708.564880	-1.000000
708.513489	-1.000000
708.462036	-1.000000
708.410706	-1.000000
708.359253	-1.000000
708.307861	-1.000000
708.256470	-1.000000
708.205017	-1.000000
708.153625	-1.000000
708.102234	-1.000000
708.050781	-1.000000
707.999329	-1.000000
707.947937	-1.000000
707.896545	-1.000000
707.845093	-1.000000
707.793701	-1.000000
707.742249	-1.000000
707.690857	-1.000000
707.639404	-1.000000
707.587952	-1.000000
707.536499	-1.000000
707.485107	-1.000000
707.433655	-1.000000
707.382202	-1.000000
707.330750	-1.000000
707.279297	-1.000000
707.227905	-1.000000
707.176453	-1.000000
707.125061	-1.000000
707.073547	-1.000000
707.022095	-1.000000
706.970642	-1.000000
706.919250	-1.000000
706.867737	-1.000000
706.816345	-1.000000
706.764832	-1.000000
706.713379	-1.000000
706.661926	-1.000000
706.610474	-1.000000
706.559021	-1.000000
706.507507	-1.000000
706.456055	-1.000000
706.404602	-1.000000
706.353149	-1.000000
706.301636	-1.000000
706.250183	-1.000000
706.198730	-1.000000
706.147217	-1.000000
706.095764	-1.000000
706.044250	-1.000000
705.992798	-1.000000
705.941345	-1.000000
705.889832	-1.000000
705.838379	-1.000000
705.786804	-1.000000
705.735352	-1.000000
705.683838	-1.000000
705.632385	-1.000000
705.580872	-1.000000
705.529419	-1.000000
705.477844	-1.000000
705.426331	-1.000000
705.374817	-1.000000
705.323364	-1.000000
705.271851	-1.000000
705.220337	-1.000000
705.168823	-1.000000
705.117310	-1.000000
705.065796	-1.000000
705.014282	-1.000000
704.962830	-1.000000
704.911255	-1.000000
704.859741	-1.000000
704.808228	-1.000000
704.756714	-1.000000
704.705200	-1.000000
704.653625	-1.000000
704.602173	-1.000000
704.550598	-1.000000
704.499084	-1.000000
704.447571	-1.000000
704.395996	-1.000000
704.344482	-1.000000
704.292969	-1.000000
704.241455	-1.000000
704.189880	-1.000000
704.138306	-1.000000
704.086792	-1.000000
704.035278	-1.000000
703.983704	-1.000000
703.932129	-1.000000
703.880615	-1.000000
703.829041	-1.000000
703.777527	-1.000000
703.725952	-1.000000
703.674377	-1.000000
703.622803	-1.000000
703.571289	-1.000000
703.519714	-1.000000
703.468140	-1.000000
703.416565	-1.000000
703.364990	-1.000000
703.313416	-1.000000
703.261902	-1.000000
703.210327	-1.000000
703.158752	-1.000000
703.107178	-1.000000
703.055542	-1.000000
703.004028	-1.000000
702.952393	-1.000000
702.900818	-1.000000
702.849243	-1.000000
702.797668	-1.000000
702.746094	-1.000000
702.694519	-1.000000
702.642883	-1.000000
702.591309	-1.000000
702.539734	-1.000000
702.488098	-1.000000
702.436584	-1.000000
702.384949	-1.000000
702.333374	-1.000000
702.281738	-1.000000
702.230164	-1.000000
702.178528	-1.000000
702.126892	-1.000000
702.075317	-1.000000
702.023682	-1.000000
701.972107	-1.000000
701.920471	-1.000000
701.868835	-1.000000
701.817261	-1.000000
701.765625	-1.000000
701.714050	-1.000000
701.662415	-1.000000
701.610779	-1.000000
701.559204	-1.000000
701.507507	-1.000000
701.455933	-1.000000
701.404297	-1.000000
701.352661	-1.000000
701.301025	-1.000000
701.249390	-1.000000
701.197754	-1.000000
701.146118	-1.000000
701.094482	-1.000000
701.042847	-1.000000
700.991211	-1.000000
700.939575	-1.000000
700.887939	-1.000000
700.836243	-1.000000
700.784607	-1.000000
700.732971	-1.000000
700.681335	-1.000000
700.629700	-1.000000
700.578003	-1.000000
700.526367	-1.000000
700.474670	-1.000000
700.423035	-1.000000
700.371399	-1.000000
700.319702	-1.000000
700.268066	-1.000000
700.216370	-1.000000
700.164734	-1.000000
700.113037	-1.000000
700.061401	-1.000000
