#Wave		#Intensity
899.963257	13.551517
899.920715	18.068689
899.878235	-9.032895
899.835815	22.578613
899.793274	4.514998
899.750793	31.599915
899.708252	22.567745
899.665771	13.538474
899.623230	0.000000
899.580688	18.045506
899.538208	4.510653
899.495667	4.509929
899.453186	18.036819
899.410645	27.050888
899.368103	-9.015516
899.325623	9.014070
899.283020	22.531557
899.240540	4.505589
899.197998	13.514596
899.155396	9.008286
899.112854	18.013680
899.070312	27.016184
899.027771	27.011848
898.985229	27.007515
898.942688	4.500530
898.900085	4.499808
898.857544	22.495430
898.814941	4.498364
898.772400	8.995285
898.729797	22.484606
898.687256	22.480997
898.644714	17.981913
898.602112	-13.484271
898.559570	8.988071
898.516907	35.946518
898.474304	17.970375
898.431763	13.475619
898.389221	17.964611
898.346558	17.961729
898.304016	26.938271
898.261353	4.488991
898.218750	22.441357
898.176147	22.437757
898.133606	26.920988
898.090942	13.458335
898.048340	13.456176
898.005676	-4.484673
897.963074	35.871624
897.920471	31.382637
897.877808	26.895088
897.835205	0.000000
897.792542	35.848614
897.749939	31.362507
897.707275	4.479640
897.664673	31.352446
897.622009	22.391012
897.579346	0.000000
897.536743	40.290894
897.494080	17.904192
897.451477	-4.475330
897.408752	0.000000
897.366089	22.369473
897.323425	13.419531
897.280823	17.889837
897.238098	22.358711
897.195435	13.413075
897.152710	26.821848
897.110046	8.939182
897.067383	0.000000
897.024719	4.468157
896.982056	22.337204
896.939331	17.866898
896.896667	8.932016
896.854004	22.326460
896.811279	26.787455
896.768555	13.391580
896.725830	8.926288
896.683167	31.236998
896.640442	31.231987
896.597778	31.226978
896.555054	-13.380845
896.512268	8.919133
896.469604	0.000000
896.426880	4.458136
896.384094	22.287107
896.341431	0.000000
896.298706	8.911983
896.255920	26.731665
896.213257	22.272816
896.170532	17.815395
896.127747	17.812538
896.085022	22.262102
896.042236	22.258533
895.999512	-8.901985
895.956787	13.350838
895.913940	0.000000
895.871216	0.000000
895.828430	8.896277
895.785767	-4.447426
895.742981	13.340137
895.700195	4.446000
895.657410	4.445287
895.614624	17.778296
895.571838	13.331584
895.529114	8.886298
895.486267	44.424366
895.443481	-4.441724
895.400757	4.441012
895.357910	31.082102
895.315125	26.637529
895.272339	17.755507
895.229553	-8.876330
895.186768	13.312361
895.143921	0.000000
895.101135	8.872062
895.058350	4.435319
895.015442	35.476868
894.972656	13.301693
894.929871	8.866374
894.887024	13.297428
894.844238	22.158829
894.801392	13.293165
894.758545	4.430345
894.715698	-4.429635
894.672913	26.573547
894.630066	8.856429
894.587219	17.710020
894.544373	4.426795
894.501526	8.852171
894.458679	13.276128
894.415894	8.849333
894.372986	8.847915
894.330078	13.269745
894.287292	13.267618
894.244446	4.421830
894.201538	26.526730
894.158691	0.000000
894.115845	4.419704
894.072876	17.675983
894.030029	4.418288
893.987183	22.087898
893.944275	13.250614
893.901428	13.248490
893.858521	17.661823
893.815552	8.829496
893.772766	22.070202
893.729858	26.479998
893.686951	22.063128
893.644043	13.235755
893.601135	-4.411211
893.558167	8.821009
893.515320	8.819595
893.472412	13.227272
893.429504	8.816769
893.386536	4.407678
893.343689	-8.813942
893.300720	26.437590
893.257812	57.272263
893.214844	0.000000
893.171936	17.616587
893.129028	35.227528
893.086060	13.208206
893.043091	22.010149
893.000183	22.006622
892.957275	13.201857
892.914307	17.599655
892.871338	26.395252
892.828430	17.594015
892.785461	26.386793
892.742493	13.191282
892.699524	8.792779
892.656555	39.561165
892.613525	8.789961
892.570618	26.365658
892.527649	8.787145
892.484619	21.964340
892.441711	30.745150
892.398682	17.565842
892.355652	17.563026
892.312744	8.780107
892.269775	8.778699
892.226746	39.497818
892.183777	17.551773
892.140686	13.161720
892.097717	21.932686
892.054749	21.929171
892.011719	17.540525
891.968750	-4.384429
891.925720	13.151179
891.882751	21.915119
891.839722	8.764644
891.796692	26.289717
891.753662	13.142753
891.710632	30.661509
891.667603	13.138541
891.624573	35.030495
891.581482	26.268663
891.538513	35.019272
891.495422	21.883539
891.452454	8.752013
891.409363	0.000000
891.366272	4.374604
891.323242	26.243422
891.280273	0.000000
891.237122	39.352520
891.194092	26.230810
891.151062	17.484406
891.107971	21.852005
891.064880	17.478804
891.021851	17.476002
890.978760	13.104902
890.935730	26.205605
890.892639	0.000000
890.849548	13.098605
890.806458	21.827511
890.763367	13.094408
890.720276	17.456413
890.677185	4.363404
890.634155	17.450821
890.591003	26.172039
890.547913	-4.361308
890.504761	21.803045
890.461731	26.159462
890.418579	0.000000
890.375488	21.792568
890.332336	26.146893
890.289246	21.785587
890.246155	17.425678
890.203003	26.134329
890.159912	-13.065072
890.116760	13.062979
890.073669	17.414515
890.030457	30.470520
889.987366	30.465639
889.944214	-21.757685
889.901062	8.701680
889.857910	21.750715
889.814758	21.747231
889.771606	21.743748
889.728516	8.696106
889.685364	21.736782
889.642212	8.693320
889.598999	4.345964
889.555908	39.107410
889.512695	30.412003
889.469543	4.343876
889.426392	4.343180
889.383240	17.369938
889.340027	0.000000
889.296875	4.341094
889.253723	13.021194
889.210449	13.019109
889.167297	-4.339008
889.124146	17.353251
889.080933	13.012854
889.037781	8.673846
888.994507	17.344915
888.951294	17.342136
888.908081	17.339359
888.864868	21.670727
888.821716	21.667255
888.778503	25.996544
888.735291	21.660316
888.692078	8.662739
888.648804	21.653379
888.605652	17.319929
888.562378	-8.658577
888.519226	17.314381
888.475952	30.295315
888.432739	25.963253
888.389465	17.306063
888.346252	25.954937
888.303040	30.275911
888.259766	38.919937
888.216492	17.294979
888.173279	21.615263
888.130066	34.578880
888.086731	34.573345
888.043457	25.925856
888.000244	17.281136
887.956970	0.000000
887.913696	12.956700
887.870483	4.318209
887.827209	12.952551
887.783936	38.851429
887.740601	4.316134
887.697327	12.946329
887.654053	4.314752
887.610779	25.884365
887.567505	25.880220
887.524231	4.312679
887.480957	34.495911
887.437622	25.867788
887.394348	25.863647
887.351074	8.619835
887.307739	17.236910
887.264404	17.234150
887.221130	4.307847
887.177734	17.228630
887.134460	4.306468
887.091125	30.140448
887.047852	38.745796
887.004517	34.435196
886.961182	8.607420
886.917908	8.606042
886.874573	4.302332
886.831238	34.413143
886.787842	12.902863
886.744568	4.300265
886.701172	25.797461
886.657837	21.494442
886.614502	8.596399
886.571167	-4.297512
886.527832	17.187294
886.484436	0.000000
886.441101	-8.590895
886.397766	8.589520
886.354370	25.764433
886.310974	17.173538
886.267639	25.756182
886.224304	17.168039
886.180908	8.582644
886.137451	21.453176
886.094177	-4.289948
886.050781	17.157045
886.007385	17.154299
885.963989	17.151552
885.920593	12.861604
885.877197	12.859545
885.833862	21.429142
885.790405	17.140570
885.747009	21.422281
885.703613	17.135080
885.660217	25.698505
885.616821	21.411993
885.573364	4.281713
885.529968	17.124109
885.486511	17.121367
885.443115	42.796566
885.399719	-17.115885
885.356323	0.000000
885.312805	8.555202
885.269409	12.830749
885.225952	12.828694
885.182556	4.275547
885.139099	-4.274862
885.095642	17.096712
885.052185	4.273493
885.008728	34.182476
884.965332	8.544250
884.921875	0.000000
884.878418	17.083029
884.835022	17.080294
884.791504	34.155121
884.748108	-4.268706
884.704590	29.876160
884.661072	29.871378
884.617615	17.066626
884.574219	4.265973
884.530762	21.326452
884.487244	21.323036
884.443726	25.583548
884.400269	25.579453
884.356812	17.050238
884.313232	29.833139
884.269836	21.305973
884.226257	8.521025
884.182739	12.779491
884.139343	4.259149
884.095825	38.326199
884.052307	17.031139
884.008789	21.285515
883.965332	17.025686
883.921753	-12.767220
883.878235	0.000000
883.834717	-12.763133
883.791199	17.014786
883.747681	21.265078
883.704163	25.514008
883.660645	25.509922
883.617126	12.752919
883.573547	21.251463
883.530029	0.000000
883.486511	0.000000
883.442932	4.248251
883.399414	8.495143
883.355896	0.000000
883.312317	25.477270
883.268738	16.982128
883.225220	16.979408
883.181641	42.441727
883.138062	21.217466
883.094482	25.456882
883.050964	21.210672
883.007385	8.482911
882.963745	21.203882
882.920227	16.960390
882.876648	29.675932
882.833069	21.193701
882.789429	38.142555
882.745911	0.000000
882.702332	21.183523
882.658691	29.652185
882.615112	42.353485
882.571533	8.469340
882.527954	16.935970
882.484314	16.933258
882.440735	38.093731
882.397156	12.695878
882.353516	4.231282
882.309875	50.767254
882.266296	8.459854
882.222656	4.229250
882.179016	25.371439
882.135437	33.823170
882.091797	21.136097
882.048218	4.226542
882.004517	12.677598
881.960876	25.351137
881.917236	42.245132
881.873657	-4.223837
881.829956	12.669482
881.786316	33.779877
881.742737	50.661705
881.699036	25.326797
881.655396	12.661372
881.611694	4.219782
881.568054	16.876425
881.524414	16.873724
881.480774	16.871021
881.437073	29.519562
881.393372	21.082026
881.349731	4.215730
881.306091	-12.645166
881.262390	-4.214381
881.218689	12.641118
881.174988	4.213032
881.131348	-4.212357
881.087646	29.481779
881.044006	4.211009
881.000244	12.631003
880.956604	37.886944
880.912903	16.835947
880.869141	21.041565
880.825500	-21.038197
880.781799	12.620897
880.738098	0.000000
880.694397	0.000000
880.650574	8.409891
880.606934	0.000000
880.563232	42.035995
880.519470	16.811707
880.475769	8.404508
880.432007	-4.201581
880.388306	16.803635
880.344604	8.400473
880.300842	4.199564
880.257080	25.193350
880.213379	20.991098
880.169617	12.592643
880.125854	16.787502
880.082092	20.981018
880.038391	25.173193
879.994629	25.169163
879.950867	16.776756
879.907104	16.774071
879.863342	29.349924
879.819580	25.153051
879.775818	25.149025
879.732056	25.144999
879.688293	8.380324
879.644531	12.568475
879.600708	8.377642
879.556946	4.188150
879.513123	25.124880
879.469299	20.934048
879.425598	16.744558
879.381775	16.741879
879.338013	29.293596
879.294189	54.393684
879.250427	25.100760
879.206604	29.279531
879.162781	20.910603
879.119019	20.907255
879.075134	8.361564
879.031372	16.720449
878.987549	0.000000
878.943726	29.251421
878.899963	37.602951
878.856140	4.177437
878.812317	16.707071
878.768433	-4.176099
878.724609	12.526293
878.680786	29.223339
878.636963	20.870472
878.593079	29.213984
878.549255	20.863791
878.505432	12.516271
878.461609	12.514267
878.417725	25.024529
878.373840	20.850435
878.330017	8.338839
878.286194	29.181265
878.242310	25.008509
878.198425	8.334835
878.154602	41.667503
878.110718	16.664333
878.066895	20.827084
878.022949	24.988499
877.979065	29.148582
877.935181	8.326833
877.891296	-4.162750
877.847473	29.134586
877.803589	12.484253
877.759705	24.964508
877.715759	8.320170
877.671936	20.797098
877.627991	12.476261
877.584106	0.000000
877.540222	29.101955
877.496277	16.627028
877.452393	20.780457
877.408447	8.310852
877.364563	12.464283
877.320679	20.770479
877.276672	-20.767155
877.232788	29.069363
877.188904	12.456304
877.144958	8.302874
877.101013	24.904633
877.057068	4.150108
877.013184	12.448330
876.969238	20.743896
876.925354	24.888691
876.881348	24.884706
876.837402	8.293574
876.793457	8.292247
876.749512	8.290919
876.705566	8.289592
876.661560	0.000000
876.617676	16.573877
876.573730	28.999641
876.529724	8.284286
876.485779	28.990358
876.441833	16.563267
876.397888	8.280308
876.353821	16.557964
876.309875	33.110626
876.265869	4.138166
876.221924	53.787544
876.177917	24.821047
876.133972	16.544716
876.089966	28.948618
876.046021	-8.269710
876.002014	8.268386
875.958008	8.267062
875.913940	12.398608
875.869995	20.661039
875.825989	16.526186
875.781982	24.785309
875.737976	4.130224
875.693970	20.647812
875.649902	12.386704
875.605896	-12.384722
875.561890	-4.127580
875.517883	20.634594
875.473877	16.505033
875.429810	16.502390
875.385864	45.374310
875.341736	32.994217
875.297791	24.741699
875.253723	8.245914
875.209656	20.611483
875.165588	4.121636
875.121521	20.604883
875.077454	24.721903
875.033447	-8.239315
874.989380	8.237996
874.945374	0.000000
874.901306	20.588396
874.857239	20.585100
874.813110	4.116361
874.769104	12.347106
874.725037	20.575216
874.680969	28.800692
874.636841	12.341177
874.592773	0.000000
874.548706	16.449635
874.504639	16.447002
874.460571	32.888737
874.416443	16.441736
874.372437	20.548880
874.328308	12.327354
874.284180	20.542301
874.240051	24.646814
874.196045	28.750013
874.151917	20.532436
874.107788	8.211659
874.063660	4.105173
874.019531	16.418062
873.975464	20.519291
873.931335	16.412806
873.887207	20.512722
873.843079	16.407551
873.798950	20.506155
873.754822	24.603447
873.710754	0.000000
873.666565	28.694830
873.622437	12.295815
873.578308	4.097949
873.534180	16.389172
873.489990	16.386549
873.445862	20.479906
873.401672	12.285976
873.357605	4.094670
873.313416	4.094014
873.269287	28.653511
873.225098	24.556221
873.180969	8.184096
873.136780	8.182786
873.092590	40.907379
873.048462	20.450415
873.004272	4.089428
872.960083	16.355095
872.915894	4.088119
872.871765	-4.087464
872.827576	12.260430
872.783386	4.086156
872.739197	8.171003
872.695007	12.254542
872.650818	8.168386
872.606567	24.501236
872.562439	20.414429
872.518188	8.164464
872.474060	8.163157
872.429810	16.323700
872.385559	12.240814
872.341370	20.398090
872.297241	24.473791
872.252930	-8.156624
872.208740	0.000000
872.164551	16.308025
872.120361	8.152707
872.076050	8.151402
872.031860	12.225144
871.987610	-4.074396
871.943359	20.368717
871.899109	0.000000
871.854919	24.434633
871.810608	8.143574
871.766418	20.355675
871.722168	32.563866
871.677917	20.349155
871.633667	16.276718
871.589417	4.068528
871.545166	4.067877
871.500916	16.268902
871.456665	8.133148
871.412354	24.395538
871.368103	16.261087
871.323853	20.323105
871.279602	28.447790
871.235229	8.126638
871.190979	8.125338
871.146790	16.248074
871.102417	0.000000
871.058105	-4.060718
871.013916	16.240269
870.969604	-4.059417
870.925293	20.293837
870.880981	8.116235
870.836731	8.114935
870.792419	4.056818
870.748047	4.056168
870.703796	4.055519
870.659485	28.384085
870.615173	-4.054220
870.570862	12.160712
870.526550	12.158765
870.482178	0.000000
870.437866	-8.103248
870.393555	32.407799
870.349243	8.100653
870.304932	24.298065
870.260559	16.196117
870.216248	16.193523
870.171875	8.095465
870.127563	-4.047084
870.083252	24.278618
870.038879	12.137364
869.994507	12.135421
869.950195	12.133478
869.905823	12.131535
869.861511	20.215986
869.817078	0.000000
869.772766	36.377121
869.728394	-8.082510
869.684021	0.000000
869.639648	16.159843
869.595276	32.314510
869.550903	8.077334
869.506531	16.152081
869.462158	16.149494
869.417786	0.000000
869.373413	20.180403
869.328979	0.000000
869.284607	8.069576
869.240234	20.170710
869.195862	28.234470
869.151428	8.065700
869.107056	16.128817
869.062622	4.031558
869.018250	16.123650
868.973877	16.121067
868.929443	32.236973
868.885010	4.028976
868.840637	20.141655
868.796143	8.055371
868.751770	16.108162
868.707336	28.184771
868.662903	12.077252
868.618469	4.025106
868.574036	12.073384
868.529663	28.166718
868.485229	4.023172
868.440735	28.157696
868.396301	24.131302
868.351868	0.000000
868.307434	0.000000
868.263000	16.079805
868.218506	12.057923
868.174072	-16.074656
868.129578	-4.018020
868.085144	24.104261
868.040710	16.066933
867.996277	20.080450
867.951721	12.046340
867.907288	8.029607
867.862793	16.056643
867.818359	28.094622
867.773865	12.038624
867.729370	20.061159
867.684937	12.034768
867.640442	8.021894
867.595947	0.000000
867.551514	4.009662
867.506958	4.009019
867.462463	12.025132
867.417969	12.023206
867.373535	16.028374
867.328979	20.032257
867.284485	20.029049
867.239929	4.005168
867.195435	12.013579
867.150940	12.011655
867.106445	4.003244
867.061890	20.013012
867.017395	16.007845
866.972839	4.001320
866.928345	4.000679
866.883789	20.000193
866.839294	-3.999398
866.794739	23.992542
866.750183	-11.994349
866.705688	11.992428
866.661133	3.996835
866.616638	11.988585
866.572021	23.973330
866.527527	23.969490
866.482910	15.977100
866.438416	7.987270
866.393860	11.978986
866.349304	15.969422
866.304749	43.908878
866.260193	7.982153
866.215637	7.980875
866.171021	0.000000
866.126465	0.000000
866.081909	3.988520
866.037292	31.903046
865.992676	23.923450
865.948181	11.959809
865.903564	23.915787
865.859009	7.970652
865.814392	23.908123
865.769836	7.968098
865.725159	19.917053
865.680603	31.862179
865.635986	19.910671
865.591431	35.833466
865.546753	15.923433
865.502197	3.980221
865.457581	15.918331
865.412964	11.936835
865.368347	27.848154
865.323792	19.888351
865.279114	19.885164
865.234497	7.952792
865.189880	15.903034
865.145264	7.950243
865.100647	11.923454
865.055969	15.895391
865.011353	11.919634
864.966675	11.917724
864.922058	11.915814
864.877441	-7.942603
864.832825	23.823992
864.788147	15.880116
864.743469	15.877571
864.698853	11.906270
864.654175	11.904363
864.609497	27.772396
864.564880	27.767944
864.520203	7.932427
864.475586	7.931156
864.430908	7.929885
864.386169	15.857229
864.341492	15.854689
864.296875	7.926074
864.252136	7.924804
864.207520	11.885301
864.162781	7.922264
864.118103	-19.802486
864.073425	3.959862
864.028687	19.796141
863.984009	23.751560
863.939331	0.000000
863.894653	15.829299
863.849976	19.783453
863.805237	3.956057
863.760559	23.732536
863.715820	-7.909577
863.671143	0.000000
863.626404	3.953521
863.581665	11.858663
863.536987	31.618032
863.492249	7.903242
863.447571	11.852962
863.402832	11.851063
863.358093	-3.949721
863.313354	3.949088
863.268616	7.896910
863.223877	11.843467
863.179138	27.630327
863.134338	-3.946557
863.089600	11.837773
863.044861	27.617044
863.000183	11.833979
862.955444	15.776110
862.910645	23.660372
862.865906	0.000000
862.821106	-11.826394
862.776367	23.648996
862.731628	3.940868
862.686890	0.000000
862.642090	-7.879209
862.597290	23.633839
862.552490	15.753366
862.507751	43.314816
862.463013	35.433712
862.418213	11.809344
862.373352	19.679085
862.328613	3.935186
862.283813	15.738222
862.239014	15.735699
862.194275	19.666471
862.149475	3.932664
862.104675	11.796100
862.059814	11.794209
862.015076	19.653864
861.970215	23.580856
861.925415	19.647564
861.880615	11.786648
861.835754	11.784759
861.790955	19.638115
861.746155	7.853987
861.701294	23.558184
861.656494	23.554407
861.611694	15.700420
861.566833	3.924476
861.522034	3.923847
861.477173	7.846436
861.432373	11.767766
861.387512	19.609800
861.342651	-3.921331
861.297852	35.286324
861.252991	27.440517
861.208130	35.275009
861.163269	7.837634
861.118408	7.836378
861.073608	19.587803
861.028687	31.335459
860.983826	7.832609
860.938965	7.831353
860.894165	11.745146
860.849243	31.315369
860.804382	27.396553
860.759460	15.652663
860.714600	-3.912539
860.669739	23.471466
860.624817	7.822568
860.580017	11.731970
860.535095	15.640119
860.490173	23.456417
860.445251	11.726328
860.400391	11.724447
860.355469	7.815045
860.310608	27.348270
860.265686	19.531347
860.220764	11.716929
860.175903	3.905017
860.130920	19.521954
860.086060	3.903764
860.041138	15.612554
859.996216	27.317589
859.951294	15.607547
859.906372	19.506306
859.861450	7.801271
859.816467	27.300070
859.771606	35.094460
859.726685	23.392555
859.681702	3.898134
859.636780	3.897509
859.591858	-7.793767
859.546936	-3.896259
859.501953	31.165071
859.457031	23.370056
859.412109	3.894385
859.367065	7.787520
859.322144	19.465677
859.277161	11.677533
859.232239	35.026981
859.187256	7.782526
859.142273	11.671916
859.097290	11.670044
859.052429	7.778781
859.007385	27.221369
858.962402	15.552572
858.917419	19.437597
858.872498	23.321375
858.827454	15.545090
858.782532	23.313894
858.737488	3.885026
858.692505	23.306417
858.647522	19.418900
858.602478	19.415785
858.557495	0.000000
858.512512	-3.881911
858.467529	19.406443
858.422485	11.641997
858.377502	19.400217
858.332458	11.638263
858.287537	-7.757597
858.242493	-3.878176
858.197449	15.510218
858.152405	11.630797
858.107422	23.257862
858.062378	7.751377
858.017334	3.875067
857.972290	3.874445
857.927307	3.873824
857.882263	23.239214
857.837219	7.745162
857.792236	15.487839
857.747131	23.228031
857.702087	-3.870717
857.657043	11.610290
857.611938	15.477901
857.566956	19.344273
857.521912	15.472936
857.476807	27.073294
857.431763	11.600979
857.386719	11.599117
857.341614	3.865752
857.296570	11.595396
857.251465	7.729023
857.206421	23.183350
857.161316	23.179630
857.116272	23.175911
857.071167	27.034225
857.026123	11.584237
856.981018	0.000000
856.935974	15.440694
856.890869	11.578662
856.845764	11.576804
856.800659	-11.574946
856.755554	-11.573090
856.710510	0.000000
856.665344	7.712917
856.620239	-3.855840
856.575134	19.276104
856.530029	3.854602
856.484924	7.707967
856.439758	26.973557
856.394653	15.410988
856.349548	15.408514
856.304443	11.554531
856.259338	15.403569
856.214233	15.401097
856.169006	34.646908
856.123962	26.943270
856.078796	19.242105
856.033630	-3.847803
855.988525	7.694372
855.943420	3.846568
855.898254	3.845951
855.853027	15.381335
855.807922	7.689433
855.762756	23.064598
855.717590	-7.686965
855.672485	15.371463
855.627258	30.737991
855.582153	26.891426
855.536987	7.682031
855.491821	26.882793
855.446655	23.038696
855.401489	7.678333
855.356262	15.354200
855.311096	30.703472
855.265930	-3.837318
855.220764	15.346808
855.175537	7.672173
855.130371	15.341882
855.085205	-7.669710
855.039978	0.000000
854.994812	23.001741
854.949646	15.332033
854.904358	15.329572
854.859192	7.663556
854.814026	7.662325
854.768799	19.152739
854.723511	11.489799
854.678406	11.487954
854.633179	26.800922
854.587952	-3.828089
854.542725	19.137369
854.497498	7.653719
854.452209	22.957470
854.407043	-3.825631
854.361755	0.000000
854.316589	15.297610
854.271301	22.942732
854.226074	11.469523
854.180908	-3.822561
854.135681	15.287788
854.090332	11.464000
854.045105	30.565758
853.999878	3.820106
853.954651	7.638986
853.909363	-3.818880
853.864136	22.909599
853.818848	15.270614
853.773621	7.634081
853.728333	3.816427
853.683044	19.079073
853.637817	22.891212
853.592529	0.000000
853.547241	15.255907
853.501953	15.253458
853.456726	22.876513
853.411438	22.872839
853.366089	11.434583
853.320801	15.243662
853.275513	19.051517
853.230225	30.477533
853.184937	11.427239
853.139648	26.659277
853.094421	-3.807857
853.049072	19.036224
853.003784	7.613267
852.958435	7.612044
852.913147	11.416233
852.867859	7.609600
852.822571	22.825132
852.777222	7.607155
852.731873	15.211867
852.686584	-3.802356
852.641296	26.612217
852.595886	0.000000
852.550598	19.002621
852.505249	11.399741
852.459900	3.799303
852.414551	7.597386
852.369263	18.990416
852.323914	3.797473
852.278564	22.781178
852.233215	22.777519
852.187927	30.365147
852.142517	34.155300
852.097168	11.383272
852.051819	18.969072
852.006470	22.759230
851.961121	11.377787
851.915771	3.791986
851.870361	15.165509
851.825012	0.000000
851.779602	3.790159
851.734253	22.737301
851.688843	7.577883
851.643555	7.576665
851.598145	7.575449
851.552734	22.722694
851.507324	15.146029
851.461975	18.929495
851.416565	11.355872
851.371216	-3.784683
851.325806	0.000000
851.280396	7.566933
851.235046	0.000000
851.189636	15.129003
851.144165	15.126572
851.098755	-3.781035
851.053345	18.902140
851.007935	7.559641
850.962524	22.675278
850.917175	-7.557211
850.871765	7.555997
850.826294	30.219131
850.780945	26.437492
850.735474	22.657066
850.690002	7.551142
850.644592	18.874821
850.599182	18.871788
850.553711	11.321253
850.508301	0.000000
850.462891	3.772538
850.417419	7.543864
850.372009	22.627954
850.326538	33.936478
850.281067	15.080455
850.235657	3.769508
850.190186	11.306705
850.144714	11.304889
850.099182	7.535381
850.053772	18.835424
850.008301	11.299438
849.962830	18.829370
849.917358	18.826345
849.871887	0.000000
849.826355	7.528117
849.780945	15.053815
849.735474	11.288547
849.690002	22.573463
849.644470	22.569836
849.598999	3.761034
849.553528	11.281290
849.507996	26.318779
849.462524	7.518442
849.417053	11.275850
849.371521	22.548077
849.325989	7.514817
849.280518	11.270413
849.234985	15.024802
849.189514	0.000000
849.143982	18.774965
849.098450	37.543892
849.052979	-7.507571
849.007446	11.259546
848.961914	22.515472
848.916443	11.255927
848.870911	41.265095
848.825378	7.501538
848.779846	0.000000
848.734253	11.248690
848.688721	14.995841
848.643250	0.000000
848.597656	14.991019
848.552124	22.482914
848.506592	7.493100
848.461060	-3.745947
848.415466	11.236035
848.369934	22.468456
848.324341	3.744141
848.278809	3.743539
848.233276	3.742937
848.187683	3.742335
848.142151	11.225199
848.096558	14.964525
848.050964	22.443178
848.005371	7.479856
847.959839	22.435961
847.914246	7.477451
847.868652	7.476248
847.823120	22.425138
847.777466	11.210766
847.731934	14.945284
847.686340	11.207160
847.640747	3.735119
847.595093	7.469037
847.549500	7.467836
847.503906	22.399904
847.458313	3.732717
847.412720	14.928466
847.367188	11.194549
847.321533	3.730916
847.275879	22.381895
847.230286	-3.729716
847.184692	33.562042
847.139038	11.185549
847.093445	33.551247
847.047791	26.091217
847.002197	3.726717
846.956543	3.726118
846.910950	26.078629
846.865356	0.000000
846.819641	22.345919
846.773987	14.894882
846.728333	7.446243
846.682739	3.722523
846.637085	-11.165771
846.591431	14.885300
846.545776	0.000000
846.500183	3.720128
846.454468	-3.719529
846.408813	11.156793
846.363159	3.718333
846.317505	7.435468
846.271851	18.585680
846.226135	7.433076
846.180481	7.431880
846.134827	18.576710
846.089172	22.288465
846.043457	0.000000
845.997803	14.854196
845.952148	22.277708
845.906433	14.849416
845.860718	7.423513
845.815002	7.422318
845.769348	7.421124
845.723633	0.000000
845.677979	14.837472
845.632324	25.961397
845.586548	7.416348
845.540894	22.245464
845.495178	-11.120942
845.449463	0.000000
845.403748	33.352089
845.358032	25.936338
845.312317	18.522976
845.266602	22.223993
845.220886	25.923819
845.175110	3.702806
845.129456	14.808843
845.083679	11.104844
845.037964	7.402038
844.992249	18.502117
844.946533	11.099483
844.900818	0.000000
844.854980	18.493183
844.809265	7.396083
844.763550	14.789784
844.717773	14.787403
844.672058	7.392511
844.626282	0.000000
844.580505	11.085197
844.534729	22.166826
844.489014	3.693876
844.443237	-11.079845
844.397522	11.078061
844.351746	11.076278
844.305969	14.765993
844.260193	3.690904
844.214417	7.380620
844.168640	11.069147
844.122803	14.756486
844.077087	33.196747
844.031250	14.751735
843.985474	14.749360
843.939697	18.433731
843.893982	18.430763
843.848145	14.742236
843.802368	29.479725
843.756531	14.737489
843.710754	11.051337
843.664917	7.366372
843.619141	14.730371
843.573303	-11.046000
843.527527	7.362814
843.481689	11.042442
843.435913	29.441771
843.390137	11.038886
843.344299	3.679036
843.298462	7.356887
843.252625	22.067106
843.206787	11.031776
843.160950	7.353333
843.115112	-7.352149
843.069336	29.403860
843.023438	25.724234
842.977661	7.348598
842.931763	11.021121
842.885986	11.019345
842.840088	11.017570
842.794250	22.031591
842.748413	18.356703
842.702576	18.353746
842.656677	36.701580
842.610840	18.347834
842.565002	-3.668976
842.519104	29.347076
842.473206	11.003381
842.427429	22.003218
842.381531	25.666285
842.335632	32.994194
842.289795	18.327154
842.243835	25.653883
842.197998	3.664250
842.152161	3.663660
842.106262	7.326139
842.060303	3.662479
842.014465	-3.661889
841.968567	36.612991
841.922668	3.660709
841.876770	7.320239
841.830933	-3.659530
841.784973	3.658940
841.739075	14.633403
841.693237	14.631044
841.647278	14.628687
841.601318	7.313165
841.555420	25.591953
841.509521	10.966212
841.463562	0.000000
841.417664	10.962679
841.371765	21.921824
841.325867	14.612194
841.279907	10.957379
841.234009	18.259357
841.188049	18.256414
841.142090	10.952084
841.096130	7.300212
841.050232	47.443729
841.004272	10.946789
840.958374	10.945024
840.912415	10.943260
840.866455	3.647166
840.820496	10.939734
840.774536	10.937970
840.728638	14.581610
840.682678	7.289629
840.636719	21.865364
840.590759	21.861839
840.544800	14.572210
840.498779	3.642465
840.452820	25.493147
840.406799	21.847746
840.360901	10.922112
840.314880	0.000000
840.268921	0.000000
840.222900	10.916831
840.176941	0.000000
840.130981	7.275541
840.084961	0.000000
840.039001	18.182989
839.992981	3.636011
839.947021	0.000000
839.901001	-3.634839
839.854980	32.708279
839.808960	14.534668
839.763000	25.431568
839.716980	7.264991
839.670959	18.159548
839.625000	0.000000
839.578918	29.045908
839.532959	0.000000
839.486877	10.888703
839.440857	7.257965
839.394836	21.770384
839.348816	-10.883436
839.302795	14.508908
839.256775	0.000000
839.210754	3.626057
839.164673	18.127363
839.118652	14.499552
839.072571	10.872910
839.026611	21.742313
838.980530	7.246269
838.934509	32.602951
838.888428	10.865897
838.842407	0.000000
838.796265	21.724785
838.750244	3.620214
838.704224	28.957037
838.658142	21.714275
838.612061	7.236924
838.566040	-7.235757
838.519958	14.469179
838.473877	14.466846
838.427734	18.080639
838.381714	18.077723
838.335632	14.459846
838.289551	14.457513
838.243469	7.227590
838.197388	14.452848
838.151245	10.837888
838.105225	0.000000
838.059143	10.834391
838.013000	14.443523
837.966919	10.830895
837.920837	18.048580
837.874695	3.609133
837.828613	32.476959
837.782471	36.079689
837.736450	14.429547
837.690308	21.640829
837.644165	18.031115
837.598083	18.028204
837.551880	21.630354
837.505798	39.649250
837.459717	25.227270
837.413513	14.413257
837.367432	7.205465
837.321289	21.612907
837.275146	14.406280
837.229004	3.600989
837.182861	7.200815
837.136780	17.999132
837.090637	21.595474
837.044434	14.394659
836.998352	21.588503
836.952148	10.792509
836.906006	17.984613
836.859863	7.192684
836.813721	17.978807
836.767578	10.785543
836.721375	17.973003
836.675171	7.188041
836.629028	-3.593441
836.582825	25.150023
836.536743	-3.592280
836.490540	14.366802
836.444336	17.955605
836.398132	7.181082
836.351990	17.949806
836.305786	14.357528
836.259644	14.355209
836.213440	25.117561
836.167236	28.701149
836.121094	14.348258
836.074890	7.172971
836.028625	3.585906
835.982422	25.097292
835.936218	25.093239
835.890076	7.168339
835.843872	14.334364
835.797668	14.332049
835.751404	10.747301
835.705261	7.163711
835.658997	17.906385
835.612793	10.742096
835.566528	17.900602
835.520325	17.897711
835.474121	17.894821
835.427856	28.627090
835.381653	0.000000
835.335388	21.463383
835.289185	35.766529
835.242920	10.728226
835.196716	10.726493
835.150513	14.299681
835.104248	17.871714
835.057922	14.295062
835.011719	0.000000
834.965454	17.863056
834.919250	14.288136
834.872986	17.857286
834.826660	28.567041
834.780457	42.843643
834.734192	3.569727
834.687927	3.569150
834.641663	24.980015
834.595398	24.975979
834.549072	3.567421
834.502869	17.834221
834.456543	-10.698805
834.410278	10.697076
834.364014	17.825581
834.317688	-7.129080
834.271423	10.691893
834.225159	17.816942
834.178833	14.251250
834.132568	10.686710
834.086243	17.808306
834.039978	17.805429
833.993652	10.681531
833.947388	-7.119870
833.901062	-10.678080
833.854736	14.235139
833.808472	14.232839
833.762146	7.115269
833.715820	3.557060
833.669495	21.338909
833.623169	17.779551
833.576843	24.887348
833.530518	0.000000
833.484192	24.879305
833.437866	21.321672
833.391541	35.530376
833.345215	24.867245
833.298889	24.863226
833.252563	3.551315
833.206177	14.202965
833.159851	0.000000
833.113525	14.198374
833.067200	14.196079
833.020813	14.193785
832.974487	14.191490
832.928101	31.925692
832.881775	7.093451
832.835388	31.915371
832.789062	21.273474
832.742676	10.635017
832.696289	10.633298
832.649963	21.263159
832.603577	10.629860
832.557190	0.000000
832.510803	0.000000
832.464417	-3.541569
832.418091	14.163983
832.371643	7.080847
832.325317	10.619553
832.278870	14.157114
832.232483	24.770945
832.186096	17.690670
832.139709	17.687811
832.093323	24.758930
832.046936	0.000000
832.000549	14.143385
831.954102	17.676373
831.907776	21.208216
831.861328	24.738916
831.814880	7.067119
831.768494	14.131952
831.722046	21.194500
831.675659	38.850300
831.629272	-7.062548
831.582825	-10.592109
831.536438	17.650660
831.489929	3.529561
831.443542	31.760912
831.397156	7.056839
831.350708	17.639242
831.304260	21.163668
831.257812	24.686951
831.211365	-7.052274
831.164917	17.627832
831.118530	10.574988
831.072021	17.622129
831.025574	7.047711
830.979065	31.709572
830.932678	21.136293
830.886169	14.088583
830.839722	17.607880
830.793274	35.210064
830.746826	21.122620
830.700378	17.599335
830.653931	7.038595
830.607422	3.518728
830.560974	14.072635
830.514465	17.587948
830.468018	0.000000
830.421509	17.582256
830.375061	38.674702
830.328552	21.091879
830.282043	35.147442
830.235535	35.141754
830.189087	17.568035
830.142578	28.104305
830.096130	0.000000
830.049622	21.071407
830.003113	21.067997
829.956543	-7.021529
829.910095	10.530589
829.863525	7.019257
829.817078	-7.018120
829.770569	3.508492
829.723999	24.555471
829.677490	10.522070
829.630981	10.520367
829.584473	21.037327
829.537964	28.045229
829.491455	7.010172
829.444885	21.027113
829.398376	10.511854
829.351868	7.006768
829.305298	24.519720
829.258789	-3.502250
829.212219	14.006732
829.165710	-3.501116
829.119141	7.001098
829.072571	10.499948
829.026001	20.996494
828.979492	13.995397
828.932922	0.000000
828.886353	24.484013
828.839783	20.982899
828.793274	17.482918
828.746704	6.992035
828.700134	0.000000
828.653564	31.453968
828.606995	6.988638
828.560425	31.443781
828.513794	13.972751
828.467285	17.463110
828.420715	31.428507
828.374146	0.000000
828.327515	6.981851
828.280945	10.471080
828.234375	10.469383
828.187744	6.978458
828.141113	34.886642
828.094604	3.488099
828.047974	20.925205
828.001404	10.460908
827.954773	13.945618
827.908142	10.457519
827.861572	13.941100
827.814941	10.454131
827.768311	17.420729
827.721680	-3.483581
827.675110	13.932068
827.628479	13.929811
827.581909	31.336998
827.535278	17.406622
827.488586	3.480761
827.441956	24.361376
827.395386	10.438898
827.348694	17.395344
827.302063	13.914021
827.255493	17.389708
827.208862	13.909512
827.162170	20.860888
827.115540	0.000000
827.068848	10.427063
827.022217	6.950249
826.975647	27.796492
826.928955	20.843990
826.882263	13.893742
826.835571	3.472872
826.789001	13.889238
826.742249	10.415240
826.695618	13.884737
826.648987	10.411864
826.602295	20.820354
826.555603	20.816980
826.508972	0.000000
826.462280	3.468372
826.415588	0.000000
826.368896	3.467248
826.322266	13.866742
826.275574	3.466124
826.228882	13.862247
826.182190	3.465000
826.135498	10.393314
826.088806	13.855506
826.042053	13.853260
825.995361	27.702028
825.948669	20.773153
825.901978	13.846523
825.855286	10.383208
825.808594	17.302542
825.761841	24.219631
825.715149	13.837545
825.668396	6.917651
825.621765	10.374794
825.575012	24.203926
825.528320	-3.457143
825.481567	44.935574
825.434814	20.736132
825.388123	0.000000
825.341370	24.184307
825.294617	20.726046
825.247864	0.000000
825.201172	6.906441
825.154419	6.905321
825.107727	13.808402
825.060974	17.257702
825.014160	17.254904
824.967468	17.252104
824.920654	24.149029
824.873962	6.898603
824.827148	-6.897484
824.780396	13.792731
824.733643	17.238117
824.686890	17.235321
824.640137	10.339515
824.593384	27.567566
824.546631	3.445387
824.499817	13.779311
824.453003	6.888538
824.406311	-3.443710
824.359497	13.772606
824.312744	3.442593
824.265930	30.978308
824.219177	10.324428
824.172302	13.763669
824.125549	13.761436
824.078735	20.638805
824.031982	6.878485
823.985168	17.193422
823.938354	17.190632
823.891541	10.312706
823.844788	34.370106
823.797974	6.872906
823.751221	13.743581
823.704346	0.000000
823.657532	13.739120
823.610718	10.302668
823.563904	-3.433665
823.517090	3.433108
823.470276	10.297652
823.423462	13.727974
823.376648	10.294310
823.329773	0.000000
823.282959	17.151613
823.236084	13.719063
823.189331	20.575254
823.142456	27.429218
823.095642	17.140478
823.048767	-10.282618
823.001953	3.426983
822.955017	6.852853
822.908203	3.425870
822.861328	20.551884
822.814514	0.000000
822.767639	20.545210
822.720764	-6.847291
822.673950	13.692359
822.627075	20.535204
822.580200	10.265935
822.533386	10.264268
822.486450	13.683468
822.439636	17.101557
822.392700	6.839512
822.345825	23.934404
822.298950	30.767809
822.252075	23.926632
822.205200	27.340281
822.158325	10.250940
822.111450	17.082125
822.064514	10.247610
822.017639	17.076576
821.970764	23.903324
821.923828	13.656824
821.876953	10.240954
821.830078	23.891678
821.783142	13.650170
821.736267	10.235965
821.689331	10.234302
821.642456	23.876158
821.595520	-3.410326
821.548584	10.229315
821.501648	-3.409218
821.454712	17.043318
821.407837	13.632440
821.360901	-3.407556
821.314026	6.814005
821.267029	10.219347
821.220154	13.623582
821.173157	6.810684
821.126221	20.428732
821.079285	17.021177
821.032349	10.211047
820.985413	3.403129
820.938477	0.000000
820.891541	3.402023
820.844604	6.802941
820.797668	20.405506
820.750671	6.800730
820.703735	20.398872
820.656738	27.194077
820.609802	13.594829
820.562866	16.990774
820.515930	3.397603
820.468933	-6.794100
820.421997	-3.396498
820.375000	6.791892
820.328003	13.581575
820.281006	27.158735
820.234009	16.971451
820.187073	3.393738
820.140076	30.538679
820.093140	16.963175
820.046082	13.568334
819.999146	23.740723
819.952148	6.781961
819.905090	10.171288
819.858093	10.169634
819.811096	16.946634
819.764099	33.887756
819.717163	13.552898
819.670105	13.550694
819.623108	40.645473
819.576111	10.159717
819.529114	20.316128
819.482117	6.770941
819.435059	10.154760
819.388062	-3.384370
819.341064	10.151458
819.294006	10.149807
819.247009	10.148156
819.199951	0.000000
819.152954	16.908092
819.105896	20.286411
819.058838	10.141556
819.011841	6.759937
818.964783	10.138256
818.917725	20.273214
818.870667	10.134958
818.823669	10.133309
818.776611	20.263323
818.729553	16.883354
818.682434	10.128365
818.635376	10.126718
818.588379	-6.750046
818.541321	13.497896
818.494263	13.495701
818.447144	20.240257
818.400146	20.236963
818.353027	20.233671
818.306030	10.115190
818.258911	10.113544
818.211853	16.853163
818.164795	3.370084
818.117676	6.739071
818.070618	6.737975
818.023499	20.210634
817.976440	3.367891
817.929321	30.306086
817.882202	6.733590
817.835144	6.732493
817.788025	13.462795
817.740967	13.460605
817.693848	13.458413
817.646729	-3.364056
817.599670	0.000000
817.552551	6.725921
817.505432	16.812067
817.458374	16.809330
817.411255	0.000000
817.364075	0.000000
817.316956	3.360224
817.269897	13.438709
817.222717	13.436522
817.175598	13.434334
817.128479	6.716073
817.081360	0.000000
817.034180	20.141659
816.987061	0.000000
816.939941	-16.779251
816.892822	3.355304
816.845642	13.419029
816.798523	20.125267
816.751404	16.768324
816.704224	23.471830
816.657104	0.000000
816.609985	-3.352027
816.562744	-6.702961
816.515625	16.754675
816.468506	26.803114
816.421265	3.349844
816.374146	10.047894
816.326965	26.790020
816.279785	20.089241
816.232605	20.085970
816.185486	20.082697
816.138306	6.693142
816.091125	0.000000
816.043945	-13.381924
815.996765	20.069614
815.949585	3.344391
815.902405	6.687692
815.855164	20.059809
815.807983	6.685513
815.760803	3.342212
815.713623	10.025002
815.666443	23.387861
815.619263	0.000000
815.572083	6.680068
815.524841	16.697451
815.477661	16.694729
815.430420	26.707214
815.383240	10.013574
815.335999	3.337314
815.288757	16.683849
815.241577	26.689810
815.194336	20.014095
815.147156	13.340555
815.099915	20.007572
815.052673	3.334052
815.005432	3.333508
814.958252	13.331861
814.911011	13.329687
814.863770	19.991272
814.816528	6.662671
814.769287	3.330792
814.722046	9.990748
814.674866	29.967360
814.627563	0.000000
814.580322	9.985864
814.533081	3.328079
814.485840	6.655072
814.438599	19.961960
814.391296	9.979353
814.344055	6.651817
814.296753	19.952198
814.249573	16.624121
814.202209	29.918537
814.154968	26.589918
814.107727	16.615990
814.060486	0.000000
814.013184	-3.322114
813.965881	9.964717
813.918640	26.568245
813.871338	-6.640978
813.824097	19.919685
813.776794	19.916437
813.729431	9.956594
813.682190	9.954970
813.634949	16.588911
813.587585	9.951723
813.540283	9.950100
813.492981	3.316159
813.445740	-3.315618
813.398376	16.575386
813.351074	9.943609
813.303833	29.825960
813.256531	13.253819
813.209167	13.251657
813.161865	6.624748
813.114502	16.559168
813.067261	3.311293
813.019958	3.310753
812.972595	43.032764
812.925232	9.929018
812.877930	13.236530
812.830566	0.000000
812.783325	19.848316
812.735962	9.922539
812.688599	16.534866
812.641296	-6.612867
812.593933	13.223576
812.546631	-6.610709
812.499207	19.828890
812.451904	23.129929
812.404541	19.822418
812.357239	26.425575
812.309875	13.210631
812.262512	29.719069
812.215149	-6.603159
812.167786	29.709368
812.120361	3.300502
812.073059	13.199853
812.025635	19.796547
811.978333	9.896658
811.930969	19.790085
811.883545	-6.595618
811.836182	9.891811
811.788818	16.483662
811.741394	23.073357
811.694031	13.182623
811.646667	16.475588
811.599304	6.589159
811.551880	36.234459
811.504456	6.587008
811.457092	-3.292966
811.409668	0.000000
811.362305	6.583781
811.314941	23.039471
811.267517	-6.581631
811.220154	-6.580556
811.172729	19.738443
811.125305	0.000000
811.077881	0.000000
811.030457	9.864387
810.983032	19.725552
810.935608	13.148219
810.888184	23.005625
810.840820	6.571962
810.793396	26.283554
810.745911	9.854723
810.698486	9.853113
810.651062	3.283834
810.603638	16.416489
810.556213	22.979330
810.508728	19.693352
810.461365	16.408445
810.413879	-3.281153
810.366394	19.683701
810.318970	13.120322
810.271545	13.118178
810.224060	9.837027
810.176636	3.278473
810.129211	16.389687
810.081726	6.554803
810.034302	9.830598
809.986816	13.105321
809.939331	6.551590
809.891907	0.000000
809.844421	16.373621
809.796936	26.193512
809.749451	16.368269
809.702026	13.092475
809.654480	6.545167
809.607056	22.904341
809.559570	3.271514
809.512085	3.270979
809.464600	9.811334
809.417114	0.000000
809.369568	13.077500
809.322144	29.419567
809.274597	13.073225
809.227173	0.000000
809.179626	22.870663
809.132141	6.533407
809.084656	3.266169
809.037109	9.796906
808.989563	6.530202
808.942078	16.322836
808.894592	-3.264034
808.847107	3.263500
808.799561	13.051865
808.752014	0.000000
808.704529	3.261899
808.656982	26.090923
808.609497	-3.260832
808.561951	3.260299
808.514404	16.298828
808.466858	9.777697
808.419373	9.776097
808.371826	13.032664
808.324280	9.772900
808.276733	-6.514201
808.229187	13.026270
808.181641	16.280174
808.134094	3.255502
808.086548	16.274847
808.039001	19.526621
807.991455	26.031237
807.943909	19.520233
807.896301	19.517038
807.848755	9.756923
807.801208	22.762428
807.753662	16.256216
807.706055	9.752134
807.658508	19.501076
807.610901	19.497885
807.563416	3.249116
807.515747	16.242920
807.468201	6.496105
807.420654	-6.495041
807.373108	3.246989
807.325439	19.478746
807.277832	42.197044
807.230347	16.226976
807.182739	9.734591
807.135132	0.000000
807.087463	16.219009
807.039917	22.702896
806.992310	12.970960
806.944702	22.695463
806.897156	19.450069
806.849548	29.170328
806.801880	6.481234
806.754272	6.480173
806.706665	0.000000
806.659058	16.195127
806.611450	9.715486
806.563843	6.475930
806.516235	0.000000
806.468567	0.000000
806.420959	12.945498
806.373291	16.179222
806.325684	19.411886
806.278076	16.173923
806.230469	9.702765
806.182800	6.467451
806.135132	0.000000
806.087524	6.465332
806.039856	6.464273
805.992249	12.926429
805.944580	19.386467
805.896973	25.844389
805.849243	0.000000
805.801636	16.147451
805.753967	6.457922
805.706299	19.370594
805.658691	29.051130
805.611023	6.454749
805.563354	-6.453691
805.515625	6.452634
805.468018	9.677365
805.420349	9.675780
805.372681	16.123657
805.324951	6.448406
805.277283	12.894699
805.229614	25.785172
805.181885	19.335711
805.134216	3.222090
805.086548	19.329372
805.038879	0.000000
804.991211	12.882026
804.943481	19.319872
804.895752	3.219451
804.848083	19.313540
804.800354	19.310373
804.752686	19.307207
804.705017	6.434681
804.657288	16.084066
804.609619	12.865144
804.561890	22.510309
804.514160	22.506620
804.466431	0.000000
804.418701	16.070887
804.371033	0.000000
804.323303	9.639370
804.275513	16.062983
804.227844	3.212070
804.180115	-3.211543
804.132385	12.844067
804.084595	32.104900
804.036865	12.839854
803.989197	-3.209437
803.941467	0.000000
803.893738	0.000000
803.845947	6.415717
803.798218	6.414665
803.750488	3.206806
803.702759	6.412561
803.654968	3.205755
803.607178	12.820915
803.559448	25.637625
803.511719	0.000000
803.463928	6.407303
803.416199	19.218758
803.368408	12.810403
803.320679	6.404151
803.272888	19.209301
803.225159	22.407173
803.177307	22.403498
803.129578	12.799898
803.081787	9.598349
803.033997	6.397849
802.986206	15.991999
802.938416	25.583000
802.890686	-3.197350
802.842896	6.393651
802.795105	0.000000
802.747253	9.587329
802.699524	31.952520
802.651672	9.584183
802.603882	15.971016
802.556091	12.774716
802.508301	12.772619
802.460510	15.963154
802.412720	19.152639
802.364929	19.149496
802.317078	9.573176
802.269226	15.952675
802.221436	12.760045
802.173645	3.189488
802.125793	6.377928
802.078003	6.376881
802.030151	6.375834
801.982361	19.124361
801.934509	15.934352
801.886719	9.559041
801.838867	-3.185824
801.791016	22.297106
801.743164	15.923889
801.695312	-6.368510
801.647522	19.102392
801.599609	19.099255
801.551819	15.913432
801.503967	3.182164
801.456055	22.271488
801.408203	22.267830
801.360352	12.722384
801.312500	6.360147
801.264709	6.359103
801.216797	12.716116
801.168945	3.178507
801.121094	3.177985
801.073181	12.709851
801.025391	6.353881
800.977478	9.529257
800.929565	9.527691
800.881714	19.052252
800.833862	0.000000
800.785950	25.394655
800.738037	19.042862
800.690247	15.866445
800.642334	12.691071
800.594421	12.688985
800.546570	9.515175
800.498596	15.856019
800.450745	9.512048
800.402832	12.680646
800.354980	12.678562
800.307068	9.507359
800.259155	12.674396
800.211243	-3.168078
800.163330	15.837787
800.115417	6.334074
800.067505	25.332129
800.019653	15.829978
799.971680	6.330950
799.923767	15.824775
799.875854	9.493304
799.827942	-3.163914
799.779968	12.653577
799.732117	12.651497
799.684143	15.811771
799.636230	15.809172
799.588257	18.967886
799.540344	9.482384
799.492371	9.480824
799.444458	-3.159755
799.396545	0.000000
799.348572	12.634865
799.300598	6.316393
799.252686	9.473032
799.204712	9.471475
799.156738	-6.313278
799.108826	6.312239
799.060852	18.933603
799.012878	22.085571
798.964966	15.772813
798.916992	6.308087
798.869019	3.153525
798.821045	15.765031
798.773071	18.914925
798.725098	12.607876
798.677124	15.757252
798.629150	12.603728
798.581116	6.300827
798.533203	0.000000
798.485168	12.597508
798.437256	3.148859
798.389221	9.445023
798.341248	9.443468
798.293274	18.883829
798.245300	12.587148
798.197266	-3.146269
798.149292	6.291502
798.101257	6.290467
798.053223	12.578864
798.005310	15.720992
797.957275	9.431043
797.909241	0.000000
797.861206	6.285292
797.813232	15.710645
797.765198	0.000000
797.717224	12.564379
797.669189	6.281155
797.621155	3.140060
797.573120	9.418631
797.525146	9.417080
797.477112	-3.138510
797.429016	9.413980
797.381042	18.824860
797.333008	15.684800
797.284912	9.409330
797.236877	21.951490
797.188843	28.218697
797.140808	-6.269789
797.092773	6.268756
797.044800	0.000000
796.996704	-3.133346
796.948608	18.796980
796.900635	12.529256
796.852539	21.922586
796.804504	18.787695
796.756409	12.523067
796.708374	6.260502
796.660339	6.259470
796.612244	6.258440
796.564209	3.128704
796.516113	3.128189
796.468018	6.255347
796.419983	12.508634
796.371887	6.253286
796.323792	6.252256
796.275757	12.502452
796.227600	9.375294
796.179504	9.373750
796.131470	15.620341
796.083374	12.494214
796.035278	34.353428
795.987183	12.490097
795.939087	15.610048
795.891052	6.242990
795.842896	18.725885
795.794800	21.843266
795.746643	21.839664
795.698547	12.477752
795.650452	15.594619
795.602356	18.710459
795.554260	9.353687
795.506165	3.117382
795.458069	18.701206
795.409912	9.349062
795.361816	9.347521
795.313660	15.576633
795.265564	3.114813
795.217407	-3.114300
795.169312	12.455144
795.121216	28.019455
795.073059	12.451037
795.024902	9.336739
794.976746	9.335198
794.928589	9.333659
794.880493	12.442827
794.832336	0.000000
794.784180	6.219362
794.736023	12.436672
794.687866	12.434621
794.639709	6.216285
794.591553	3.107630
794.543396	12.428470
794.495239	12.426420
794.447144	12.424370
794.398926	9.316740
794.350830	3.105068
794.302612	12.418222
794.254456	18.624262
794.206238	15.517657
794.158081	9.309058
794.109924	3.102507
794.061707	12.407983
794.013550	18.608902
793.965393	18.605833
793.917236	9.301381
793.869019	6.199898
793.820862	9.298312
793.772583	15.494629
793.724426	21.688900
793.676270	6.195806
793.628052	6.194784
793.579895	18.581284
793.531677	3.096370
793.483459	9.287576
793.435242	18.572084
793.387085	6.189673
793.338806	-3.094326
793.290649	0.000000
793.242371	12.373217
793.194214	0.000000
793.145996	12.369132
793.097778	6.183545
793.049561	21.638834
793.001343	24.726013
792.953064	15.451207
792.904846	0.000000
792.856628	6.178442
792.808411	-6.177422
792.760193	27.793808
792.711914	3.087691
792.663696	18.523087
792.615417	12.346684
792.567200	33.947777
792.518982	12.342607
792.470703	-9.255426
792.422485	6.169265
792.374207	9.252370
792.325928	12.334455
792.277710	9.249313
792.229492	24.660761
792.181152	6.164172
792.132935	12.326307
792.084656	-3.081068
792.036377	3.080559
791.988098	15.400249
791.939819	21.556786
791.891602	15.395161
791.843323	6.157047
791.795044	-6.156029
791.746765	18.465036
791.698486	6.153995
791.650208	6.152978
791.601929	3.075981
791.553650	21.528307
791.505371	21.524750
791.457031	9.223368
791.408752	18.443687
791.360474	6.146880
791.312195	12.291727
791.263916	6.144848
791.215576	0.000000
791.167297	12.285633
791.118958	-6.141801
791.070679	9.211179
791.022339	3.069885
790.974060	6.138756
790.925720	3.068870
790.877441	15.341815
790.829102	3.067856
790.780823	9.202045
790.732422	15.334207
790.684143	6.132668
790.635803	3.065827
790.587524	12.261281
790.539185	9.194440
790.490845	9.192919
790.442505	3.063800
790.394104	3.063293
790.345825	3.062786
790.297424	15.311399
790.249146	6.123547
790.200745	21.428867
790.152405	12.243042
790.104065	15.301270
790.055725	0.000000
790.007385	9.177726
789.958984	-3.058736
789.910706	18.349379
789.862305	0.000000
789.813904	0.000000
789.765564	-6.113424
789.717224	15.281032
789.668823	6.111401
789.620483	27.496756
789.572083	9.164068
789.523682	3.054184
789.475342	21.375750
789.427002	3.053173
789.378601	24.421343
789.330200	-3.052163
789.281799	3.051657
789.233459	15.255762
789.185059	12.202590
789.136658	-12.200570
789.088257	0.000000
789.039856	21.343929
788.991455	3.048628
788.943115	9.144370
788.894714	9.142857
788.846252	12.188457
788.797913	9.139830
788.749451	9.138316
788.701050	0.000000
788.652649	3.045097
788.604248	9.133778
788.555847	18.264530
788.507385	15.217921
788.458984	18.258482
788.410522	3.042576
788.362122	18.252436
788.313660	0.000000
788.265259	12.164260
788.216858	-3.040561
788.168396	21.280403
788.119995	6.079108
788.071533	15.195253
788.023071	-6.077095
787.974670	6.076088
787.926208	3.037541
787.877747	6.074075
787.829346	27.328810
787.780884	-3.036031
787.732422	21.248697
787.684021	12.140101
787.635559	27.310701
787.587097	6.068039
787.538635	18.201101
787.490173	12.132057
787.441711	6.065023
787.393250	15.160046
787.344788	9.094520
787.296326	6.062008
787.247803	-3.030502
787.199341	0.000000
787.150879	15.147488
787.102417	3.028995
787.053894	0.000000
787.005432	-12.111965
786.956909	3.027489
786.908508	6.053975
786.859985	6.052971
786.811523	18.155903
786.763000	6.050964
786.714478	9.074942
786.666016	9.073438
786.617493	12.095911
786.569031	9.070429
786.520508	6.045950
786.471985	6.044947
786.423523	6.043945
786.375000	6.042943
786.326477	9.062911
786.277954	9.061408
786.229431	15.099842
786.180908	12.077869
786.132446	21.132767
786.083923	9.055398
786.035339	12.071861
785.986816	15.087323
785.938354	15.084821
785.889771	27.148172
785.841248	-6.031927
785.792725	9.046389
785.744202	18.089775
785.695679	0.000000
785.647095	18.083775
785.598572	0.000000
785.550049	0.000000
785.501465	3.012462
785.452942	0.000000
785.404358	6.022925
785.355835	12.043852
785.307251	21.073242
785.258728	0.000000
785.210205	15.047320
785.161621	15.044823
785.113037	12.033860
785.064453	18.047794
785.015930	15.037333
784.967346	21.048771
784.918762	9.019404
784.870239	9.017907
784.821594	18.032820
784.773071	15.024856
784.724487	-9.013417
784.675903	15.019867
784.627319	9.010424
784.578735	12.011904
784.530151	15.012387
784.481567	0.000000
784.432983	6.002961
784.384399	12.003928
784.335754	24.003868
784.287170	17.999912
784.238586	8.998461
784.190002	0.000000
784.141357	8.995473
784.092773	11.991971
784.044128	20.982464
783.995605	11.987988
783.946960	14.982495
783.898376	11.984006
783.849670	2.995504
783.801086	-2.995006
783.752502	20.961559
783.703857	0.000000
783.655212	2.993514
783.606628	2.993016
783.558044	14.962595
783.509338	-5.984043
783.460693	8.974573
783.412109	14.955137
783.363464	5.981061
783.314819	5.980067
783.266174	14.947682
783.217529	26.901358
783.168884	14.942715
783.120300	0.000000
783.071594	20.912848
783.022949	8.961159
782.974304	14.932782
782.925659	8.958180
782.877014	20.898945
782.828369	8.955202
782.779663	8.953713
782.731018	17.904449
782.682373	14.917893
782.633667	11.932331
782.585022	17.895521
782.536377	5.964181
782.487671	23.852760
782.439026	14.905496
782.390320	20.864223
782.341614	26.820971
782.292969	11.918448
782.244263	14.895583
782.195557	-8.935863
782.146912	0.000000
782.098206	17.865782
782.049500	2.977135
782.000854	14.883200
781.952087	11.904579
781.903442	11.902599
781.854736	5.950310
781.806030	5.949320
781.757324	8.922495
781.708618	2.973670
781.659912	2.973175
781.611206	5.945362
781.562500	0.000000
781.513794	8.915074
781.465027	14.855986
781.416382	11.882811
781.367615	11.880834
781.318909	14.848570
781.270203	2.969220
781.221436	11.874903
781.172791	14.841158
781.124023	14.838688
781.075256	11.868975
781.026550	5.933499
780.977844	23.730047
780.929077	2.965762
780.880310	20.756878
780.831604	14.823874
780.782837	17.785686
780.734131	-5.927575
780.685364	17.779766
780.636597	20.739605
780.587891	0.000000
780.539062	14.809072
780.490356	29.613211
780.441589	-2.960828
780.392822	11.841340
780.344055	5.919684
780.295288	17.756094
780.246521	14.794281
780.197815	-2.958363
780.148987	17.747223
780.100281	0.000000
780.051453	0.000000
780.002686	20.694750
779.953918	14.779502
779.905151	0.000000
779.856384	2.954916
779.807556	11.817694
779.758789	32.493244
779.710022	17.720634
779.661194	8.858841
779.612427	11.809819
779.563599	-2.951963
779.514832	8.854413
779.466003	8.852938
779.417236	8.851462
779.368408	8.849987
779.319580	8.848513
779.270813	8.847038
779.221985	26.536690
779.173218	17.688179
779.124390	8.842615
779.075562	5.894094
779.026733	8.839667
778.977966	2.946065
778.929138	11.782294
778.880310	11.780330
778.831482	29.445915
778.782593	11.776402
778.733826	11.774439
778.684937	14.715594
778.636108	26.483654
778.587341	8.826412
778.538513	17.649881
778.489624	20.588095
778.440796	0.000000
778.391968	17.641054
778.343079	11.758740
778.294250	8.817585
778.245422	11.754819
778.196594	23.505716
778.147705	2.937725
778.098816	17.623407
778.049988	2.936744
778.001099	2.936255
777.952271	0.000000
777.903381	5.870550
777.854553	14.673927
777.805664	5.868591
777.756836	8.801418
777.707886	-5.866633
777.659058	11.731309
777.610168	14.661690
777.561279	17.591091
777.512451	11.725437
777.463562	8.792610
777.414673	2.930381
777.365784	8.789676
777.316895	23.435225
777.268005	11.715656
777.219116	11.713701
777.170227	14.639682
777.121277	11.709791
777.072388	17.561754
777.023560	11.705882
776.974670	8.777946
776.925720	11.701974
776.876831	11.700020
776.827881	20.471617
776.778992	-2.924028
776.730103	17.541241
776.681152	-2.923052
776.632263	0.000000
776.583313	11.688304
776.534424	5.843176
776.485535	14.605500
776.436584	5.841225
776.387695	17.520746
776.338684	-2.919637
776.289795	2.919149
776.240906	17.511969
776.191956	0.000000
776.143005	-2.917687
776.094055	-2.917199
776.045105	20.416983
775.996216	11.664899
775.947266	2.915737
775.898315	17.491503
775.849365	11.659053
775.800415	20.399933
775.751465	8.741368
775.702515	17.479815
775.653564	14.564078
775.604553	5.824658
775.555664	20.382895
775.506653	17.468134
775.457703	11.643476
775.408752	14.551912
775.359802	8.729689
775.310852	8.728230
775.261841	14.544617
775.212891	8.725311
775.163879	0.000000
775.114929	-5.814930
775.065918	-2.906979
775.016968	11.625972
774.968018	5.812014
774.918945	31.960732
774.869995	5.810071
774.820984	8.713649
774.772034	8.712192
774.723022	11.614313
774.674011	20.321650
774.625061	-2.902607
774.576050	8.706366
774.527039	20.311455
774.478027	17.406908
774.429016	5.801332
774.380005	11.600723
774.330994	-2.899696
774.281982	5.798421
774.232971	2.898726
774.183960	14.491204
774.134949	14.488780
774.085876	20.280899
774.036926	5.793573
773.987915	5.792604
773.938904	2.895817
773.889832	-2.895333
773.840820	8.684545
773.791809	17.366184
773.742737	11.575519
773.693665	8.680186
773.644653	17.357466
773.595581	-5.784854
773.546570	2.891943
773.497559	17.348753
773.448486	2.890975
773.399475	26.014420
773.350403	5.780015
773.301331	28.895235
773.252319	14.445199
773.203247	17.331337
773.154236	8.664218
773.105103	5.775178
773.056030	2.887105
773.007019	14.433111
772.957947	28.861389
772.908875	2.885656
772.859802	8.655518
772.810730	14.423447
772.761658	11.536825
772.712585	17.302340
772.663513	17.299442
772.614441	11.531030
772.565369	0.000000
772.516296	8.645375
772.467163	5.762618
772.418091	14.404132
772.368958	8.641031
772.319946	11.519445
772.270813	8.638137
772.221741	20.152277
772.172668	11.513657
772.123535	-5.755864
772.074402	2.877450
772.025330	8.630903
771.976257	2.876486
771.927124	11.504015
771.877991	8.626565
771.828918	17.250238
771.779785	11.498232
771.730652	14.370381
771.681580	8.620784
771.632446	8.619339
771.583313	17.235788
771.534180	2.872150
771.485046	8.615005
771.435974	0.000000
771.386780	0.000000
771.337708	-11.480898
771.288513	20.088203
771.239380	5.738524
771.190247	8.606343
771.141113	11.473201
771.091980	17.206915
771.042908	0.000000
770.993713	0.000000
770.944519	0.000000
770.895447	5.731792
770.846313	2.865416
770.797119	11.459740
770.747925	31.508999
770.698792	0.000000
770.649658	8.590481
770.600525	22.904106
770.551331	8.587600
770.502197	8.586159
770.453003	20.031010
770.403870	20.027649
770.354675	14.303063
770.305481	14.300664
770.256287	-5.719306
770.207153	25.732559
770.157959	2.858693
770.108765	2.858214
770.059631	0.000000
770.010437	17.143528
769.961243	8.570325
769.912048	5.712591
769.862854	11.423265
769.813660	28.553370
769.764465	-2.854858
769.715271	5.708757
769.666077	19.977295
769.616882	22.827362
769.567688	17.117647
769.518494	5.704925
769.469238	5.703967
769.420044	14.257524
769.370850	0.000000
769.321594	-2.850547
769.272461	-5.700137
769.223206	0.000000
769.173950	5.698223
769.124817	14.243166
769.075562	2.848155
769.026306	17.086060
768.977112	-11.388793
768.927856	5.693440
768.878662	5.692484
768.829407	11.383056
768.780212	22.762287
768.730957	34.137695
768.681763	-2.844330
768.632446	11.375409
768.583252	19.903622
768.533997	5.685793
768.484741	2.842419
768.435486	19.893591
768.386230	2.841464
768.337036	11.363947
768.287781	14.202546
768.238525	11.360127
768.189209	11.358219
768.140015	5.678155
768.090759	19.870203
768.041443	19.866863
767.992188	11.350585
767.942932	2.837169
767.893677	2.836693
767.844421	11.344863
767.795105	31.193129
767.745850	5.670525
767.696594	28.347857
767.647278	14.171545
767.598022	0.000000
767.548767	14.166780
767.499451	8.498639
767.450134	5.664807
767.400879	5.663854
767.351562	19.820156
767.302307	2.830975
767.252991	11.321995
767.203735	16.980135
767.154419	11.318187
767.105103	8.487212
767.055786	19.800165
767.006470	11.312476
766.957214	14.138217
766.907837	14.135839
766.858582	16.960154
766.809265	11.304867
766.759949	14.128706
766.710632	11.301064
766.661316	14.123953
766.612000	5.648631
766.562683	5.647680
766.513367	16.940189
766.464050	2.822890
766.414673	14.112074
766.365356	8.465819
766.316040	2.821465
766.266724	5.641980
766.217346	11.282061
766.168030	5.640081
766.118713	8.458697
766.069336	14.095456
766.020020	8.455850
765.970703	19.726995
765.921326	2.817668
765.871948	11.268774
765.822632	22.533752
765.773254	16.897469
765.723938	8.447312
765.674561	19.707077
765.625244	19.703758
765.575867	0.000000
765.526489	22.510998
765.477112	14.067004
765.427795	11.251708
765.378418	0.000000
765.329041	2.811980
765.279663	8.434518
765.230286	14.055162
765.180908	11.242235
765.131531	2.810086
765.082153	11.238448
765.032715	8.427417
764.983337	5.617331
764.934021	11.232769
764.884644	11.230877
764.835205	-5.614492
764.785828	19.647411
764.736450	28.063002
764.687073	5.611655
764.637634	14.026772
764.588257	-8.414645
764.538818	8.413227
764.489441	11.215746
764.440063	2.803464
764.390625	14.014956
764.341187	5.605038
764.291809	11.208186
764.242432	-19.611019
764.192932	8.403306
764.143555	-5.601259
764.094116	11.200630
764.044739	5.599371
763.995300	2.799213
763.945862	8.396224
763.896484	11.193078
763.847046	19.584583
763.797607	25.175934
763.748169	8.390563
763.698730	2.796382
763.649292	27.959108
763.599854	22.363516
763.550415	8.384904
763.500977	16.766979
763.451538	16.764151
763.402100	25.141985
763.352661	27.930826
763.303162	2.792611
763.253723	5.584280
763.204285	11.166677
763.154846	-2.791198
763.105408	5.581455
763.055908	19.531796
763.006470	5.579571
762.957031	5.578630
762.907532	11.155377
762.858032	13.941868
762.808594	0.000000
762.759094	5.574865
762.709656	5.573924
762.660156	5.572983
762.610718	8.358064
762.561218	11.142204
762.511780	30.635891
762.462280	5.569221
762.412781	8.352422
762.363342	5.567341
762.313843	11.132803
762.264343	13.913654
762.214783	13.911305
762.165344	19.472538
762.115845	11.125286
762.066345	8.342556
762.016846	-2.780382
761.967346	11.119651
761.917847	8.338329
761.868286	13.894869
761.818848	2.778505
761.769287	5.556070
761.719788	22.220528
761.670288	19.439678
761.620789	8.329883
761.571228	8.328476
761.521729	16.654139
761.472229	2.775221
761.422668	2.774752
761.373169	2.774283
761.323608	8.321443
761.274109	5.546691
761.224609	5.545754
761.175049	11.089634
761.125488	8.315820
761.075989	0.000000
761.026489	5.542006
760.976929	11.082139
760.927307	19.390465
760.877808	13.847992
760.828308	13.845651
760.778687	8.305986
760.729187	8.304583
760.679626	5.535452
760.630066	19.370808
760.580566	-2.766790
760.530945	13.831613
760.481384	11.063419
760.431824	8.296162
760.382263	8.294759
760.332703	24.880068
760.283142	16.583908
760.233521	22.108137
760.184021	8.289149
760.134460	19.338078
760.084839	8.286345
760.035278	2.761648
759.985657	0.000000
759.936096	5.521428
759.886536	11.040988
759.836975	5.519560
759.787354	19.315191
759.737732	13.794231
759.688232	22.067036
759.638611	16.547478
759.588989	5.514893
759.539368	5.513959
759.489807	-2.756513
759.440186	30.316513
759.390564	13.777902
759.341003	24.796026
759.291443	11.018591
759.241760	5.508363
759.192200	0.000000
759.142578	22.025993
759.092957	8.258349
759.043335	8.256951
758.993713	19.262959
758.944092	19.259697
758.894470	11.003678
758.844849	13.752270
758.795227	10.999952
758.745667	21.996180
758.695984	2.749057
758.646362	8.245774
758.596741	-2.748126
758.547058	5.495321
758.497437	2.747195
758.447815	19.227110
758.398193	-2.746265
758.348511	5.491600
758.298889	19.217342
758.249268	16.469217
758.199646	2.744405
758.149963	21.951519
758.100281	16.460850
758.050659	-2.743010
758.000977	5.485091
757.951355	16.452484
757.901672	2.741616
757.851990	8.223455
757.802368	21.925497
757.752686	21.921782
757.703003	13.698792
757.653320	10.957176
757.603699	-8.216490
757.554016	8.215097
757.504333	13.689507
757.454651	2.737437
757.404968	10.947894
757.355286	0.000000
757.305603	13.680228
757.255920	10.942327
757.206238	8.205355
757.156616	5.469309
757.106873	16.405144
757.057190	0.000000
757.007446	5.466527
756.957764	16.396801
756.908081	5.464674
756.858398	2.731874
756.808716	0.000000
756.758972	5.461894
756.709290	10.921935
756.659607	10.920082
756.609924	0.000000
756.560120	24.561852
756.510437	16.371790
756.460693	13.640844
756.411072	13.638530
756.361328	5.454486
756.311584	10.907122
756.261902	2.726318
756.212097	8.177566
756.162415	-2.725393
756.112671	16.349583
756.062927	5.448936
756.013184	10.896023
755.963501	5.447087
755.913757	2.723081
755.864014	13.613094
755.814270	21.777254
755.764587	5.443389
755.714844	2.721233
755.665100	2.720771
755.615356	10.881236
755.565552	2.719847
755.515808	5.438771
755.466064	5.437848
755.416321	8.155387
755.366577	5.436001
755.316833	21.740313
755.267029	0.000000
755.217285	5.433233
755.167542	13.580774
755.117737	10.862775
755.067993	2.715232
755.018188	2.714771
754.968445	5.428620
754.918701	10.855396
754.868896	-8.140164
754.819092	0.000000
754.769348	5.424933
754.719543	5.424011
754.669739	0.000000
754.619995	0.000000
754.570190	8.131871
754.520386	13.550816
754.470642	5.419405
754.420837	13.546210
754.371033	10.835127
754.321228	16.249928
754.271484	21.662889
754.221619	8.122203
754.171875	8.120822
754.122070	-2.706481
754.072205	10.824082
754.022400	8.116682
753.972595	27.051008
753.922852	0.000000
753.872986	21.633450
753.823181	-2.703721
753.773376	8.109785
753.723572	10.811209
753.673706	5.404685
753.623901	13.509415
753.574097	13.507118
753.524292	5.401928
753.474426	-5.401010
753.424561	2.700046
753.374756	10.798346
753.324951	2.699127
753.275085	0.000000
753.225281	0.000000
753.175415	8.093250
753.125610	8.091874
753.075745	-2.696832
753.025879	18.874615
752.976074	10.783659
752.926208	16.172737
752.876343	24.254978
752.826477	8.083617
752.776672	16.164482
752.726807	18.855354
752.676941	13.465818
752.627075	0.000000
752.577209	10.768989
752.527344	5.383578
752.477539	-5.382661
752.427673	16.145235
752.377808	10.761659
752.327881	16.139740
752.278015	-5.378997
752.228149	16.134245
752.178284	13.442915
752.128357	-2.688125
752.078491	5.375335
752.028625	5.374420
751.978760	2.686752
751.928833	-2.686295
751.878967	8.057512
751.829102	10.741520
751.779175	21.479382
751.729309	10.737862
751.679382	10.736033
751.629456	10.734204
751.579590	5.366188
751.529663	-5.365274
751.479797	24.139620
751.429871	13.408615
751.379944	-5.362533
751.330078	-2.680809
751.280212	16.082115
751.230225	5.359792
751.180298	13.397197
751.130371	0.000000
751.080505	8.035579
751.030579	2.678070
750.980652	0.000000
750.930725	-5.354314
750.880859	10.706803
750.830872	18.733711
750.780945	10.703154
750.731018	16.051994
750.681091	5.349752
750.631165	10.697681
750.581177	2.673964
750.531311	5.347017
750.481384	10.692210
750.431396	5.345194
750.381409	18.704988
750.331482	8.015057
750.281616	0.000000
750.231628	10.683098
750.181641	24.032871
750.131714	8.009591
750.081787	2.669408
750.031799	10.675812
