#Wave		#Intensity
899.963257	117.446487
899.920715	108.412140
899.878235	90.328949
899.835815	103.861626
899.793274	112.874954
899.750793	108.342560
899.708252	130.892929
899.665771	108.307793
899.623230	85.729912
899.580688	108.273033
899.538208	103.745010
899.495667	108.238289
899.453186	175.858994
899.410645	121.728996
899.368103	108.186188
899.325623	94.647728
899.283020	117.164093
899.240540	126.156471
899.197998	90.097305
899.155396	94.586990
899.112854	99.075233
899.070312	135.080917
899.027771	90.039497
898.985229	144.040085
898.942688	112.513252
898.900085	107.995392
898.857544	62.987206
898.814941	130.452560
898.772400	134.929276
898.729797	125.913788
898.687256	112.404984
898.644714	125.873390
898.602112	107.874168
898.559570	121.338966
898.516907	71.893036
898.474304	107.822258
898.431763	94.329338
898.389221	62.876137
898.346558	107.770370
898.304016	143.670776
898.261353	143.647720
898.218750	112.206787
898.176147	125.651436
898.133606	98.710289
898.090942	112.152794
898.048340	116.620193
898.005676	139.024841
897.963074	121.066734
897.920471	107.597610
897.877808	121.027901
897.835205	147.899261
897.792542	143.394455
897.749939	129.930389
897.707275	120.950264
897.664673	125.409782
897.622009	125.389671
897.579346	98.504654
897.536743	107.442383
897.494080	134.281433
897.451477	116.358582
897.408752	143.187592
897.366089	111.847366
897.323425	125.248955
897.280823	120.756409
897.238098	125.208778
897.195435	134.130753
897.152710	107.287392
897.110046	138.557327
897.067383	107.252983
897.024719	120.640251
896.982056	107.218582
896.939331	116.134834
896.896667	111.650200
896.854004	120.562881
896.811279	116.078972
896.768555	138.379654
896.725830	138.357468
896.683167	129.410416
896.640442	133.851379
896.597778	138.290909
896.555054	107.046761
896.512268	120.408295
896.469604	164.977493
896.426880	115.911545
896.384094	129.265213
896.341431	98.047546
896.298706	147.047729
896.255920	151.479431
896.213257	129.182327
896.170532	173.700104
896.127747	164.765976
896.085022	164.739563
896.042236	115.744370
895.999512	97.921844
895.956787	115.707260
895.913940	169.083496
895.871216	120.119011
895.828430	155.684860
895.785767	151.212463
895.742981	146.741516
895.700195	128.933990
895.657410	102.241592
895.614624	137.781799
895.571838	195.529907
895.529114	128.851318
895.486267	159.927719
895.443481	106.601387
895.400757	168.758469
895.357910	177.612015
895.315125	150.945999
895.272339	181.993942
895.229553	150.897614
895.186768	128.686157
895.143921	141.975739
895.101135	124.208862
895.058350	172.977463
895.015442	155.211304
894.972656	128.583038
894.929871	168.461105
894.887024	150.704193
894.844238	163.975327
894.801392	177.242203
894.758545	155.062073
894.715698	137.318680
894.672913	146.154510
894.630066	128.418228
894.587219	128.397644
894.544373	141.657440
894.501526	172.617340
894.458679	154.888153
894.415894	154.863327
894.372986	172.534332
894.330078	145.967194
894.287292	172.479034
894.244446	145.920395
894.201538	190.108231
894.158691	145.873627
894.115845	207.726105
894.072876	198.854813
894.030029	154.640076
893.987183	172.285599
893.944275	216.426697
893.901428	216.392014
893.858521	203.110962
893.815552	150.101440
893.772766	194.217773
893.729858	198.599991
893.686951	229.456528
893.644043	194.124405
893.601135	211.738144
893.558167	194.062195
893.515320	189.621292
893.472412	185.181808
893.429504	207.194046
893.386536	189.530136
893.343689	154.243988
893.300720	211.500717
893.257812	176.222351
893.214844	198.218369
893.171936	215.803192
893.129028	215.768616
893.086060	176.109406
893.043091	220.101486
893.000183	189.256943
892.957275	189.226608
892.914307	211.195862
892.871338	145.173889
892.828430	211.128174
892.785461	224.287735
892.742493	237.443085
892.699524	228.612244
892.656555	259.345398
892.613525	219.749023
892.570618	259.262299
892.527649	298.762909
892.484619	215.250534
892.441711	259.137695
892.398682	232.747406
892.355652	184.411774
892.312744	241.452927
892.269775	223.856827
892.226746	210.655029
892.183777	232.560989
892.140686	219.362000
892.097717	206.167236
892.054749	276.307556
892.011719	254.337631
891.968750	284.987885
891.925720	236.721222
891.882751	258.598419
891.839722	271.703949
891.796692	240.989075
891.753662	254.093216
891.710632	254.052505
891.667603	284.668396
891.624573	262.728729
891.581482	240.796082
891.538513	258.267120
891.495422	262.602448
891.452454	227.552338
891.409363	253.767715
891.366272	271.225464
891.323242	258.060303
891.280273	249.272552
891.237122	257.977631
891.194092	262.308105
891.151062	292.863770
891.107971	284.076050
891.064880	297.139648
891.021851	318.937042
890.978760	288.307861
890.935730	283.894043
890.892639	257.647156
890.849548	292.535492
890.806458	257.564636
890.763367	314.265808
890.720276	257.482117
890.677185	283.621277
890.634155	296.663971
890.591003	296.616455
890.547913	318.375458
890.504761	265.997162
890.461731	261.594635
890.418579	235.397446
890.375488	235.359741
890.332336	265.826752
890.289246	313.712463
890.246155	278.810852
890.203003	274.410461
890.159912	256.946411
890.116760	335.283112
890.073669	278.632233
890.030457	278.587616
889.987366	317.713104
889.944214	308.959137
889.901062	313.260468
889.857910	343.661285
889.814758	308.810669
889.771606	356.597443
889.728516	317.407867
889.685364	304.314941
889.642212	312.959534
889.598999	338.985168
889.555908	286.787659
889.512695	312.809174
889.469543	304.071320
889.426392	330.081696
889.383240	282.261475
889.340027	316.950592
889.296875	329.923096
889.253723	303.827881
889.210449	290.760101
889.167297	282.035522
889.124146	316.696838
889.080933	273.269928
889.037781	294.910767
888.994507	290.527313
888.951294	316.493988
888.908081	307.773621
888.864868	242.712143
888.821716	281.674347
888.778503	333.622314
888.735291	307.576477
888.692078	311.858612
888.648804	251.179199
888.605652	307.428741
888.562378	303.050201
888.519226	341.959015
888.475952	285.641541
888.432739	363.485535
888.389465	333.141724
888.346252	333.088379
888.303040	320.059631
888.259766	367.577179
888.216492	315.633392
888.173279	311.259766
888.130066	285.275757
888.086731	345.733429
888.043457	293.826355
888.000244	341.302429
887.956970	280.773468
887.913696	289.366302
887.870483	336.820251
887.827209	384.259003
887.783936	336.712402
887.740601	284.864868
887.697327	302.081024
887.654053	271.829376
887.610779	314.926453
887.567505	306.249268
887.524231	332.076324
887.480957	267.343292
887.437622	319.036072
887.394348	280.189514
887.351074	344.793396
887.307739	275.790558
887.264404	292.980530
887.221130	331.704254
887.177734	331.651123
887.134460	374.662689
887.091125	314.321808
887.047852	370.237610
887.004517	340.047546
886.961182	348.600494
886.917908	365.756775
886.874573	314.070221
886.831238	344.131439
886.787842	335.474426
886.744568	356.922028
886.701172	382.662323
886.657837	378.302155
886.614502	309.470398
886.571167	365.288483
886.527832	300.777649
886.484436	313.617889
886.441101	347.931244
886.397766	339.286011
886.354370	330.643555
886.310974	364.937683
886.267639	296.196106
886.224304	321.900726
886.180908	304.683899
886.137451	347.541443
886.094177	386.095337
886.050781	343.140900
886.007385	373.105988
885.963989	373.046234
885.920593	334.401703
885.877197	355.780731
885.833862	351.437927
885.790405	411.373657
885.747009	428.445618
885.703613	406.958160
885.660217	398.326843
885.616821	393.980652
885.573364	372.509003
885.529968	419.540680
885.486511	406.632477
885.443115	393.728394
885.399719	402.223297
885.356323	444.941772
885.312805	384.984100
885.269409	376.368622
885.225952	410.518219
885.182556	393.350311
885.139099	371.913025
885.095642	435.966125
885.052185	363.246948
885.008728	470.009033
884.965332	435.756775
884.921875	439.958435
884.878418	397.180420
884.835022	405.656982
884.791504	405.592041
884.748108	388.452271
884.704590	431.070312
884.661072	435.268646
884.617615	388.265717
884.574219	341.277863
884.530762	447.855469
884.487244	473.371429
884.443726	422.128540
884.400269	507.325806
884.356812	413.468262
884.313232	473.068359
884.269836	490.037384
884.226257	485.698425
884.182739	455.801849
884.139343	477.024628
884.095825	459.914368
884.052307	476.871887
884.008789	498.081055
883.965332	476.719208
883.921753	523.456055
883.878235	472.311523
883.834717	480.744659
883.791199	463.652924
883.747681	493.349792
883.704163	437.990448
883.660645	454.926971
883.617126	480.359955
883.573547	471.782471
883.530029	463.207733
883.486511	492.876099
883.442932	543.776184
883.399414	484.223145
883.355896	535.108337
883.312317	488.314331
883.268738	534.937012
883.225220	454.199188
883.181641	496.568207
883.138062	488.001709
883.094482	500.652039
883.050964	504.814026
883.007385	542.906311
882.963745	564.023254
882.920227	563.932983
882.876648	525.687927
882.833069	538.320007
882.789429	614.518921
882.745911	516.960754
882.702332	597.375366
882.658691	550.683472
882.615112	584.478088
882.571533	558.976501
882.527954	525.015076
882.484314	563.030823
882.440735	537.544922
882.397156	562.850586
882.353516	528.910217
882.309875	541.517395
882.266296	477.981781
882.222656	473.676025
882.179016	460.914459
882.135437	452.384888
882.091797	528.402405
882.048218	507.185120
882.004517	557.814331
881.960876	557.725037
881.917236	481.594513
881.873657	549.098816
881.829956	540.564575
881.786316	515.143127
881.742737	510.838867
881.699036	548.747314
881.655396	552.879883
881.611694	531.692505
881.568054	620.208618
881.524414	510.430115
881.480774	577.832520
881.437073	522.917969
881.393372	548.132690
881.349731	535.397766
881.306091	522.666870
881.262390	526.797607
881.218689	497.217316
881.174988	471.859528
881.131348	526.544617
881.087646	459.073425
881.044006	467.421967
881.000244	492.609131
880.956604	425.175720
880.912903	505.078400
880.869141	433.456238
880.825500	458.632690
880.781799	458.559265
880.738098	475.311035
880.694397	462.618103
880.650574	462.544037
880.606934	466.674255
880.563232	441.377960
880.519470	516.960022
880.475769	453.843445
880.432007	466.375519
880.388306	487.305420
880.344604	487.227417
880.300842	403.158142
880.257080	445.082520
880.213379	503.786346
880.169617	520.495911
880.125854	482.640686
880.082092	469.974823
880.038391	465.704071
879.994629	440.460358
879.950867	461.360779
879.907104	419.351776
879.863342	452.827393
879.819580	402.448822
879.775818	419.150421
879.732056	431.655823
879.688293	439.967041
879.644531	406.380676
879.600708	423.070923
879.556946	448.132111
879.513123	401.998077
879.469299	427.054596
879.425598	355.821869
879.381775	368.321320
879.338013	405.925537
879.294189	380.755798
879.250427	347.227173
879.206604	384.816681
879.162781	405.665710
879.119019	422.326569
879.075134	401.355042
879.031372	359.489685
878.987549	430.482666
878.943726	359.374603
878.899963	346.782745
878.856140	375.969299
878.812317	396.792969
878.768433	375.848938
878.724609	438.420258
878.680786	367.379120
878.636963	409.061249
878.593079	367.261505
878.549255	400.584778
878.505432	346.283478
878.461609	375.428009
878.417725	367.026398
878.373840	354.457397
878.330017	341.892395
878.286194	333.500153
878.242310	366.791443
878.198425	304.221466
878.154602	337.506775
878.110718	329.120605
878.066895	320.737091
878.022949	341.509491
877.979065	295.649902
877.935181	287.275757
877.891296	374.647522
877.847473	370.425446
877.803589	349.559082
877.759705	337.020874
877.715759	295.366058
877.671936	328.594147
877.627991	299.430267
877.584106	324.330872
877.540222	328.436371
877.496277	315.913513
877.452393	307.550781
877.408447	307.501526
877.364563	294.988037
877.320679	328.173584
877.276672	319.814178
877.232788	261.624268
877.188904	311.407593
877.144958	273.994812
877.101013	323.760223
877.057068	253.156570
877.013184	269.713806
876.969238	277.968201
876.925354	228.146332
876.881348	232.257263
876.837402	228.073288
876.793457	211.452286
876.749512	232.145737
876.705566	273.556549
876.661560	232.071426
876.617676	194.743057
876.573730	215.425903
876.529724	186.396423
876.485779	211.215454
876.441833	269.153076
876.397888	219.428146
876.353821	231.811493
876.309875	235.913223
876.265869	244.151794
876.221924	235.837692
876.177917	231.663101
876.133972	231.626022
876.089966	173.691711
876.046021	190.203323
876.002014	219.112228
875.958008	214.943619
875.913940	202.510605
875.869995	223.139221
875.825989	218.971954
875.781982	268.507507
875.737976	223.032074
875.693970	198.218994
875.649902	185.800568
875.605896	214.668503
875.561890	243.527191
875.517883	185.711349
875.473877	218.691681
875.429810	189.777496
875.385864	202.121918
875.341736	284.575104
875.297791	235.046143
875.253723	247.377396
875.209656	218.481720
875.165588	226.690018
875.121521	201.927856
875.077454	238.978394
875.033447	210.102539
874.989380	197.711899
874.945374	230.626968
874.901306	238.825394
874.857239	230.553131
874.813110	271.679840
874.769104	234.595016
874.725037	275.707886
874.680969	218.062378
874.636841	218.027466
874.592773	250.897095
874.548706	222.070068
874.504639	304.269531
874.460571	258.998810
874.416443	234.294739
874.372437	226.037674
874.328308	226.001495
874.284180	271.158386
874.240051	267.007172
874.196045	262.857269
874.151917	234.069778
874.107788	242.243973
874.063660	242.205185
874.019531	225.748352
873.975464	225.712204
873.931335	233.882477
873.887207	258.460297
873.843079	266.622711
873.798950	254.276321
873.754822	262.436768
873.710754	258.294830
873.666565	241.856430
873.622437	262.310730
873.578308	249.974899
873.534180	274.518646
873.489990	307.247772
873.445862	323.582520
873.401672	241.624207
873.357605	229.301514
873.313416	302.957062
873.269287	245.601532
873.225098	270.118439
873.180969	270.075195
873.136780	278.214722
873.092590	286.351654
873.048462	306.756226
873.004272	265.812836
872.960083	286.214142
872.915894	253.463379
872.871765	253.422791
872.827576	298.337128
872.783386	241.083191
872.739197	257.386597
872.695007	277.769623
872.650818	257.304169
872.606567	257.263000
872.562439	285.802002
872.518188	298.002930
872.474060	314.281525
872.429810	293.826599
872.385559	297.859833
872.341370	342.687927
872.297241	310.001343
872.252930	301.795074
872.208740	273.203156
872.164551	305.775452
872.120361	252.733902
872.076050	297.526154
872.031860	313.778717
871.987610	293.356476
871.943359	321.825714
871.899109	289.189453
871.854919	280.998291
871.810608	293.168640
871.766418	293.121704
871.722168	301.215729
871.677917	309.307190
871.633667	276.704224
871.589417	284.796967
871.545166	292.887115
871.500916	272.504089
871.456665	321.259338
871.412354	325.273834
871.368103	300.830109
871.323853	284.523468
871.279602	341.373505
871.235229	304.748962
871.190979	353.452179
871.146790	268.093201
871.102417	263.988922
871.058105	284.250214
871.013916	336.985596
870.969604	296.337463
870.925293	271.937408
870.880981	304.358795
870.836731	304.310059
870.792419	279.920410
870.748047	308.268768
870.703796	291.997345
870.659485	304.115204
870.615173	255.415863
870.570862	271.589233
870.526550	239.122375
870.482178	271.502258
870.437866	247.149048
870.393555	202.548752
870.349243	210.616959
870.304932	222.732269
870.260559	255.088837
870.216248	267.193146
870.171875	202.386627
870.127563	210.448380
870.083252	263.018341
870.038879	242.747299
869.994507	206.302155
869.950195	198.180130
869.905823	194.104553
869.861511	198.116669
869.817078	194.042389
869.772766	198.053223
869.728394	250.557816
869.684021	169.705536
869.639648	197.958084
869.595276	193.887070
869.550903	189.817352
869.506531	214.015076
869.462158	205.906052
869.417786	169.542542
869.373413	217.948349
869.328979	177.559113
869.284607	201.739395
869.240234	173.468094
869.195862	165.373322
869.151428	129.051193
869.107056	141.127136
869.062622	161.262329
869.018250	124.958290
868.973877	116.877739
868.929443	153.125610
868.885010	136.985184
868.840637	124.878258
868.796143	112.775200
868.751770	161.081619
868.707336	120.791870
868.662903	112.721024
868.618469	132.828506
868.574036	112.684921
868.529663	112.666870
868.485229	148.857376
868.440735	124.698372
868.396301	84.459557
868.351868	112.594711
868.307434	88.453102
868.263000	88.438934
868.218506	108.521309
868.174072	92.429268
868.129578	120.540611
868.085144	64.278030
868.040710	80.334663
867.996277	92.370071
867.951721	76.293488
867.907288	96.355286
867.862793	100.354012
867.818359	96.324417
867.773865	80.257492
867.729370	88.269104
867.684937	84.243370
867.640442	76.207985
867.595947	80.206085
867.551514	64.154587
867.506958	72.162354
867.462463	72.150795
867.417969	56.108295
867.373535	68.120590
867.328979	80.129028
867.284485	52.075527
867.239929	68.087860
867.195435	48.054317
867.150940	60.058277
867.106445	68.055145
867.061890	72.046844
867.017395	60.029419
866.972839	64.021126
866.928345	44.007473
866.883789	64.000610
866.839294	27.995783
866.794739	63.980110
866.750183	63.969860
866.705688	47.969711
866.661133	87.930382
866.616638	47.954342
866.572021	55.937771
866.527527	99.872871
866.482910	63.908401
866.438416	55.910892
866.393860	47.915943
866.349304	63.877689
866.304749	47.900593
866.260193	63.857227
866.215637	35.913937
866.171021	51.867374
866.126465	71.804855
866.081909	75.781876
866.037292	63.806091
865.992676	63.795868
865.948181	43.852634
865.903564	75.733322
865.859009	55.794559
865.814392	63.754997
865.769836	71.712875
865.725159	67.717979
865.680603	59.741585
865.635986	43.803478
865.591431	91.574417
865.546753	59.712875
865.502197	67.663750
865.457581	55.714161
865.412964	39.789452
865.368347	71.609535
865.323792	103.419426
865.279114	55.678463
865.234497	47.716747
865.189880	75.539413
865.145264	67.577065
865.100647	55.642784
865.055969	75.503113
865.011353	75.491013
864.966675	83.424065
864.922058	95.326515
864.877441	83.397331
864.832825	55.589314
864.788147	55.580406
864.743469	67.479675
864.698853	63.500111
864.654175	51.585571
864.609497	87.284668
864.564880	55.535889
864.520203	67.425629
864.475586	75.345985
864.430908	55.509197
864.386169	99.107681
864.341492	55.491409
864.296875	63.408588
864.252136	75.285637
864.207520	59.426502
864.162781	110.911697
864.118103	67.328453
864.073425	63.357800
864.028687	59.388420
863.984009	83.130463
863.939331	55.411427
863.894653	59.359875
863.849976	83.090508
863.805237	71.209015
863.760559	59.331341
863.715820	63.276619
863.671143	86.991409
863.626404	86.977470
863.581665	83.010643
863.536987	47.427048
863.492249	75.080795
863.447571	86.921722
863.402832	75.056732
863.358093	114.541908
863.313354	75.032677
863.268616	67.123741
863.223877	63.165157
863.179138	71.049416
863.134338	86.824257
863.089600	74.972565
863.044861	94.687012
863.000183	78.893196
862.955444	78.880547
862.910645	74.924507
862.865906	82.798027
862.821106	82.784760
862.776367	94.595985
862.731628	66.994751
862.686890	63.043777
862.642090	70.912880
862.597290	63.023567
862.552490	63.013466
862.507751	51.190235
862.463013	62.993267
862.418213	70.856064
862.373352	43.293987
862.328613	70.833351
862.283813	55.083775
862.239014	43.273174
862.194275	58.999413
862.149475	47.191963
862.104675	35.388298
862.059814	55.039642
862.015076	62.892365
861.970215	23.580856
861.925415	51.083664
861.880615	31.431061
861.835754	47.139034
861.790955	43.203854
861.746155	58.904903
861.701294	66.748184
861.656494	54.960285
861.611694	66.726791
861.566833	54.942661
861.522034	58.857700
861.477173	58.848267
861.432373	50.993652
861.387512	39.219601
861.342651	43.134644
861.297852	47.048431
861.252991	70.561333
861.208130	54.872234
861.163269	54.863438
861.118408	27.427320
861.073608	58.763409
861.028687	50.920120
860.983826	27.414131
860.938965	43.072441
860.894165	50.895634
860.849243	35.229790
860.804382	27.396553
860.759460	46.957989
860.714600	31.300308
860.669739	62.590576
860.624817	43.024124
860.580017	43.017223
860.535095	54.740417
860.490173	23.456417
860.445251	42.996536
860.400391	31.265194
860.355469	42.982746
860.310608	39.068958
860.265686	54.687771
860.220764	27.339502
860.175903	23.430101
860.130920	31.235125
860.086060	54.652702
860.041138	27.321970
859.996216	23.415075
859.951294	35.116982
859.906372	23.407566
859.861450	35.105721
859.816467	50.700130
859.771606	31.195076
859.726685	35.088833
859.681702	15.592536
859.636780	15.590035
859.591858	19.484419
859.546936	31.170071
859.501953	42.851974
859.457031	38.950092
859.412109	46.732616
859.367065	46.725121
859.322144	23.358812
859.277161	42.817623
859.232239	11.675660
859.187256	27.238838
859.142273	31.125109
859.097290	31.120117
859.052429	19.446953
859.007385	31.110134
858.962402	50.545860
858.917419	11.662559
858.872498	31.095167
858.827454	31.090179
858.782532	23.313894
858.737488	34.965233
858.692505	7.768806
858.647522	27.186459
858.602478	34.948410
858.557495	31.060272
858.512512	34.937199
858.467529	27.169020
858.422485	34.925991
858.377502	38.800434
858.332458	34.914787
858.287537	0.000000
858.242493	38.781765
858.197449	27.142881
858.152405	42.646255
858.107422	23.257862
858.062378	27.129820
858.017334	19.375334
857.972290	42.618896
857.927307	7.747647
857.882263	15.492809
857.837219	34.853230
857.792236	7.743919
857.747131	23.228031
857.702087	27.095022
857.657043	19.350481
857.611938	15.477901
857.566956	23.213129
857.521912	15.472936
857.476807	38.676132
857.431763	23.201958
857.386719	3.866372
857.341614	23.194513
857.296570	34.786186
857.251465	30.916094
857.206421	11.591675
857.161316	3.863272
857.116272	23.175911
857.071167	19.310160
857.026123	38.614124
856.981018	23.164757
856.935974	0.000000
856.890869	57.893311
856.845764	19.294674
856.800659	11.574946
856.755554	7.715393
856.710510	11.571232
856.665344	15.425834
856.620239	23.135038
856.575134	26.986546
856.530029	57.819035
856.484924	23.123901
856.439758	23.120192
856.394653	19.263735
856.349548	19.260643
856.304443	26.960573
856.259338	11.552677
856.214233	42.353016
856.169006	3.849656
856.123962	46.188465
856.078796	15.393683
856.033630	11.543410
855.988525	11.541557
855.943420	30.772547
855.898254	26.921658
855.853027	30.762671
855.807922	26.913015
855.762756	26.908697
855.717590	3.843482
855.672485	23.057194
855.627258	26.895742
855.582153	23.049793
855.536987	3.841016
855.491821	11.521197
855.446655	38.397827
855.401489	23.034998
855.356262	15.354200
855.311096	38.379341
855.265930	26.861225
855.220764	34.530319
855.175537	11.508259
855.130371	26.848293
855.085205	26.843983
855.039978	23.005436
854.994812	30.668989
854.949646	19.165041
854.904358	19.161964
854.859192	19.158890
854.814026	26.818138
854.768799	22.983286
854.723511	34.469395
854.678406	22.975908
854.633179	26.800922
854.587952	3.828089
854.542725	19.137369
854.497498	19.134296
854.452209	22.957470
854.407043	19.128155
854.361755	19.125084
854.316589	26.770817
854.271301	19.118942
854.226074	19.115873
854.180908	34.403046
854.135681	19.109735
854.090332	0.000000
854.045105	11.462159
853.999878	19.100533
853.954651	38.194931
853.909363	22.913279
853.864136	26.727865
853.818848	22.905920
853.773621	34.353363
853.728333	11.449283
853.683044	22.894888
853.637817	34.336819
853.592529	7.629179
853.547241	30.511814
853.501953	41.947010
853.456726	19.063761
853.411438	22.872839
853.366089	34.303749
853.320801	22.865494
853.275513	26.672125
853.230225	11.429075
853.184937	34.281719
853.139648	41.893150
853.094421	22.847139
853.049072	19.036224
853.003784	11.419901
852.958435	3.806022
852.913147	15.221643
852.867859	49.462399
852.822571	15.216755
852.777222	15.214311
852.731873	22.817801
852.686584	15.209424
852.641296	15.206982
852.595886	19.005674
852.550598	11.401572
852.505249	11.399741
852.459900	15.197213
852.414551	7.597386
852.369263	18.990416
852.323914	11.392419
852.278564	7.593726
852.233215	11.388760
852.187927	34.160789
852.142517	22.770201
852.097168	37.944241
852.051819	18.969072
852.006470	26.552435
851.961121	18.962978
851.915771	18.959932
851.870361	26.539640
851.825012	34.116913
851.779602	34.111431
851.734253	30.316402
851.688843	45.467297
851.643555	26.518330
851.598145	30.301794
851.552734	15.148462
851.507324	30.292057
851.461975	0.000000
851.416565	18.926453
851.371216	18.923412
851.325806	37.840744
851.280396	18.917332
851.235046	11.348576
851.189636	7.564501
851.144165	15.126572
851.098755	-7.562071
851.053345	18.902140
851.007935	26.458742
850.962524	49.129768
850.917175	18.893028
850.871765	26.445990
850.826294	7.554783
850.780945	3.776785
850.735474	15.104711
850.690002	3.775571
850.644592	7.549928
850.599182	11.323072
850.553711	22.642506
850.508301	15.092578
850.462891	11.317615
850.417419	22.631592
850.372009	15.085303
850.326538	26.395037
850.281067	41.471249
850.235657	15.078031
850.190186	30.151215
850.144714	18.841480
850.099182	3.767691
850.053772	7.534170
850.008301	33.898315
849.962830	15.063497
849.917358	11.295807
849.871887	7.529327
849.826355	33.876526
849.780945	11.290360
849.735474	11.288547
849.690002	11.286732
849.644470	26.331474
849.598999	26.327242
849.553528	26.323009
849.507996	26.318779
849.462524	22.555326
849.417053	18.793083
849.371521	22.548077
849.325989	15.029634
849.280518	22.540827
849.234985	15.024802
849.189514	18.777983
849.143982	11.264979
849.098450	11.263168
849.052979	18.768929
849.007446	7.506364
848.961914	15.010315
848.916443	3.751976
848.870911	26.259605
848.825378	26.255384
848.779846	48.752159
848.734253	26.246943
848.688721	26.242723
848.643250	14.993430
848.597656	0.000000
848.552124	11.241457
848.506592	26.225849
848.461060	11.237843
848.415466	29.962761
848.369934	7.489486
848.324341	3.744141
848.278809	26.204771
848.233276	33.686432
848.187683	7.484670
848.142151	11.225199
848.096558	18.705656
848.050964	41.145828
848.005371	22.439569
847.959839	22.435961
847.914246	18.693626
847.868652	14.952497
847.823120	18.687614
847.777466	26.158453
847.731934	14.945284
847.686340	18.678600
847.640747	14.940476
847.595093	14.938074
847.549500	14.935672
847.503906	14.933270
847.458313	14.930867
847.412720	22.392698
847.367188	33.583645
847.321533	11.192748
847.275879	18.651579
847.230286	22.378296
847.184692	37.291161
847.139038	11.185549
847.093445	37.279163
847.047791	37.273167
847.002197	37.267170
846.956543	14.904470
846.910950	26.078629
846.865356	3.724919
846.819641	33.518879
846.773987	7.447441
846.728333	18.615608
846.682739	37.225227
846.637085	14.887695
846.591431	11.163975
846.545776	40.927990
846.500183	52.081787
846.454468	22.317175
846.408813	33.470379
846.363159	26.028328
846.317505	3.717734
846.271851	18.585680
846.226135	26.015766
846.180481	3.715940
846.134827	11.146027
846.089172	26.003210
846.043457	14.856586
845.997803	33.421940
845.952148	22.277708
845.906433	11.137062
845.860718	33.405807
845.815002	22.266956
845.769348	18.552811
845.723633	18.549826
845.677979	18.546841
845.632324	37.087711
845.586548	37.081741
845.540894	22.245464
845.495178	3.706981
845.449463	22.238306
845.403748	14.823151
845.358032	29.641531
845.312317	29.636761
845.266602	25.927992
845.220886	25.923819
845.175110	25.919645
845.129456	29.617685
845.083679	22.209688
845.037964	7.402038
844.992249	25.902964
844.946533	36.998276
844.900818	29.593857
844.854980	36.986366
844.809265	18.490206
844.763550	18.487230
844.717773	-3.696851
844.672058	14.785023
844.626282	25.869625
844.580505	18.475328
844.534729	7.388942
844.489014	40.632641
844.443237	7.386563
844.397522	36.926872
844.351746	11.076278
844.305969	25.840488
844.260193	33.218136
844.214417	33.212788
844.168640	36.897156
844.122803	3.689121
844.077087	14.754110
844.031250	44.255203
843.985474	25.811378
843.939697	11.060239
843.893982	14.744611
843.848145	51.597828
843.802368	25.794760
843.756531	36.843723
843.710754	14.735116
843.664917	25.782301
843.619141	11.047778
843.573303	14.727999
843.527527	22.088442
843.481689	22.084885
843.435913	29.441771
843.390137	3.679629
843.344299	25.753252
843.298462	36.784435
843.252625	22.067106
843.206787	22.063553
843.160950	29.413334
843.115112	25.732521
843.069336	18.377413
843.023438	22.049343
842.977661	22.045792
842.931763	18.368534
842.885986	22.038691
842.840088	29.380188
842.794250	25.703524
842.748413	55.070110
842.702576	33.036743
842.656677	11.010474
842.610840	11.008700
842.565002	40.358734
842.519104	29.347076
842.473206	40.345730
842.427429	36.672028
842.381531	36.666122
842.335632	7.332043
842.289795	21.992586
842.243835	32.983562
842.197998	10.992750
842.152161	7.327319
842.106262	3.663069
842.060303	10.987438
842.014465	10.985668
841.968567	21.967796
841.922668	40.267803
841.876770	29.280956
841.830933	14.638120
841.784973	21.953642
841.739075	21.950104
841.693237	14.631044
841.647278	29.257374
841.601318	32.909245
841.555420	29.247948
841.509521	18.277021
841.463562	21.928890
841.417664	18.271132
841.371765	18.268187
841.325867	32.877438
841.279907	14.609839
841.234009	29.214972
841.188049	21.907698
841.142090	47.459026
841.096130	14.600424
841.050232	25.546625
841.004272	29.191437
840.958374	36.483414
840.912415	25.534275
840.866455	18.235828
840.820496	0.000000
840.774536	36.459900
840.728638	25.517817
840.682678	29.158518
840.636719	40.086502
840.590759	25.505480
840.544800	14.572210
840.498779	18.212326
840.452820	32.776905
840.406799	29.130329
840.360901	32.766338
840.314880	3.640117
840.268921	32.755775
840.222900	14.555775
840.176941	18.191786
840.130981	21.826624
840.084961	18.185921
840.039001	10.909793
839.992981	18.180058
839.947021	14.541700
839.901001	14.539356
839.854980	32.708279
839.808960	36.336670
839.763000	0.000000
839.716980	21.794973
839.670959	18.159548
839.625000	14.525296
839.578918	18.153692
839.532959	25.411072
839.486877	14.518271
839.440857	25.402878
839.394836	18.141987
839.348816	32.650311
839.302795	10.881681
839.256775	18.133211
839.210754	25.382402
839.164673	3.625473
839.118652	7.249776
839.072571	21.745819
839.026611	21.742313
838.980530	10.869403
838.934509	21.735300
838.888428	25.353760
838.842407	57.942104
838.796265	21.724785
838.750244	25.341496
838.704224	21.717777
838.658142	18.095228
838.612061	14.473848
838.566040	18.089392
838.519958	25.321064
838.473877	18.083557
838.427734	25.312895
838.381714	14.462178
838.335632	21.689768
838.289551	25.300648
838.243469	28.910360
838.197388	3.613212
838.151245	25.288404
838.105225	25.284325
838.059143	25.280245
838.013000	39.719692
837.966919	32.492687
837.920837	28.877728
837.874695	18.045668
837.828613	25.259859
837.782471	18.039845
837.736450	7.214774
837.690308	0.000000
837.644165	18.031115
837.598083	3.605641
837.551880	14.420237
837.505798	10.813432
837.459717	36.038956
837.413513	25.223198
837.367432	32.424595
837.321289	43.225815
837.275146	10.804709
837.229004	3.600989
837.182861	10.801223
837.136780	17.999132
837.090637	28.793964
837.044434	32.387981
836.998352	17.990419
836.952148	21.585018
836.906006	35.969227
836.859863	28.770735
836.813721	14.383046
836.767578	25.166267
836.721375	17.973003
836.675171	32.346184
836.629028	21.560642
836.582825	7.185721
836.536743	7.184561
836.490540	61.058910
836.444336	28.728966
836.398132	10.771623
836.351990	32.309654
836.305786	17.946909
836.259644	25.121616
836.213440	35.882229
836.167236	-3.587644
836.121094	14.348258
836.074890	32.278370
836.028625	17.929531
835.982422	25.097292
835.936218	39.432232
835.890076	17.920849
835.843872	7.167182
835.797668	28.664099
835.751404	17.912169
835.705261	32.236698
835.658997	25.068939
835.612793	0.000000
835.566528	42.961445
835.520325	25.056795
835.474121	25.052750
835.427856	14.313545
835.381653	7.155617
835.335388	32.195076
835.289185	35.766529
835.242920	14.304301
835.196716	14.301991
835.150513	28.599361
835.104248	25.020399
835.057922	21.442593
835.011719	32.158695
834.965454	7.145222
834.919250	17.860170
834.872986	17.857286
834.826660	39.279682
834.780457	3.570303
834.734192	17.848633
834.687927	21.414900
834.641663	39.254311
834.595398	28.543976
834.549072	24.971945
834.502869	10.700533
834.456543	35.662682
834.410278	24.959845
834.364014	17.825581
834.317688	3.564540
834.271423	14.255857
834.225159	32.070496
834.178833	21.376875
834.132568	-3.562237
834.086243	17.808306
834.039978	21.366514
833.993652	24.923573
833.947388	7.119870
833.901062	14.237439
833.854736	28.470278
833.808472	24.907467
833.762146	39.133980
833.715820	17.785299
833.669495	35.564850
833.623169	32.003193
833.576843	17.776678
833.530518	28.438087
833.484192	39.096050
833.437866	39.089733
833.391541	21.318226
833.345215	17.762318
833.298889	24.863226
833.252563	14.205261
833.206177	7.101482
833.159851	35.501675
833.113525	31.946342
833.067200	31.941177
833.020813	28.387569
832.974487	17.739363
832.928101	21.283794
832.881775	24.827080
832.835388	21.276913
832.789062	24.819054
832.742676	7.090012
832.696289	3.544433
832.649963	24.807018
832.603577	21.259720
832.557190	21.256283
832.510803	35.421413
832.464417	24.790979
832.418091	31.868963
832.371643	28.323387
832.325317	31.858658
832.278870	31.853508
832.232483	21.232237
832.186096	35.381340
832.139709	24.762934
832.093323	28.295919
832.046936	45.973434
832.000549	42.430153
831.954102	21.211647
831.907776	17.673513
831.861328	17.670654
831.814880	24.734917
831.768494	24.730917
831.722046	24.726917
831.675659	35.318455
831.629272	21.187645
831.582825	21.184217
831.536438	7.060264
831.489929	10.588683
831.443542	21.173941
831.397156	28.227354
831.350708	31.750637
831.304260	17.636389
831.257812	28.213659
831.211365	14.104548
831.164917	52.883499
831.118530	28.199970
831.072021	10.573277
831.025574	24.666990
830.979065	24.663000
830.932678	35.227158
830.886169	31.699312
830.839722	28.172607
830.793274	31.689056
830.746826	52.806549
830.700378	35.198669
830.653931	14.077189
830.607422	10.556184
830.560974	17.590794
830.514465	7.035179
830.468018	31.653183
830.421509	24.615158
830.375061	10.547647
830.328552	10.545939
830.282043	21.088467
830.235535	21.085052
830.189087	17.568035
830.142578	35.130383
830.096130	21.074818
830.049622	14.047606
830.003113	14.045332
829.956543	28.086117
829.910095	28.081572
829.863525	38.605911
829.817078	24.563421
829.770569	28.067938
829.723999	10.523773
829.677490	24.551497
829.630981	21.040733
829.584473	7.012443
829.537964	24.539576
829.491455	21.030518
829.444885	35.045189
829.398376	31.535563
829.351868	17.516920
829.305298	14.011268
829.258789	10.506750
829.212219	17.508415
829.165710	31.510044
829.119141	14.002196
829.072571	24.499878
829.026001	17.497078
828.979492	41.986191
828.932922	10.494848
828.886353	17.488581
828.839783	24.480049
828.793274	24.476086
828.746704	31.464157
828.700134	6.990902
828.653564	13.979541
828.606995	27.954554
828.560425	17.468767
828.513794	20.959126
828.467285	27.940975
828.420715	10.476169
828.374146	20.948944
828.327515	17.454626
828.280945	6.980720
828.234375	20.938766
828.187744	17.446146
828.141113	27.909313
828.094604	20.928595
828.047974	31.387808
828.001404	13.947877
827.954773	41.836853
827.908142	38.344234
827.861572	27.882200
827.814941	20.908262
827.768311	34.841457
827.721680	17.417908
827.675110	27.864136
827.628479	20.894716
827.581909	24.373220
827.535278	27.850595
827.488586	38.288364
827.441956	17.400982
827.395386	41.755592
827.348694	17.395344
827.302063	27.828041
827.255493	17.389708
827.208862	45.205914
827.162170	17.384073
827.115540	13.905005
827.068848	20.854126
827.022217	38.226372
826.975647	27.796492
826.928955	20.843990
826.882263	13.893742
826.835571	34.728725
826.789001	31.250786
826.742249	41.660961
826.695618	13.884737
826.648987	27.764973
826.602295	20.820354
826.555603	34.694965
826.508972	41.627213
826.462280	6.936744
826.415588	24.274668
826.368896	20.803486
826.322266	17.333427
826.275574	17.330618
826.228882	20.793371
826.182190	38.114998
826.135498	45.037697
826.088806	34.638767
826.042053	6.926630
825.995361	17.313768
825.948669	6.924384
825.901978	27.693047
825.855286	20.766417
825.808594	41.526100
825.761841	20.759684
825.715149	31.134478
825.668396	27.670603
825.621765	20.749588
825.575012	13.830815
825.528320	48.400002
825.481567	17.282913
825.434814	31.104197
825.388123	10.366385
825.341370	17.274506
825.294617	24.180386
825.247864	24.176464
825.201172	37.985424
825.154419	10.357981
825.107727	6.904201
825.060974	34.515404
825.014160	31.058826
824.967468	27.603367
824.920654	24.149029
824.873962	31.043715
824.827148	13.794969
824.780396	20.689096
824.733643	34.476234
824.686890	24.129448
824.640137	17.232525
824.593384	24.121620
824.546631	20.672321
824.499817	37.893105
824.453003	17.221344
824.406311	24.105970
824.359497	44.760967
824.312744	13.770371
824.265930	34.420341
824.219177	34.414757
824.172302	6.881835
824.125549	20.642155
824.078735	20.638805
824.031982	34.392426
823.985168	30.948160
823.938354	30.943138
823.891541	27.500549
823.844788	20.622065
823.797974	30.928076
823.751221	34.358952
823.704346	34.353374
823.657532	6.869560
823.610718	27.473782
823.563904	13.734661
823.517090	13.732431
823.470276	17.162754
823.423462	27.455948
823.376648	34.314365
823.329773	30.877914
823.282959	27.442581
823.236084	10.289297
823.189331	24.004463
823.142456	10.285956
823.095642	20.568575
823.048767	20.565235
823.001953	23.988878
822.955017	47.969967
822.908203	17.129351
822.861328	17.126570
822.814514	20.548546
822.767639	20.545210
822.720764	30.812811
822.673950	27.384718
822.627075	23.957737
822.580200	20.531870
822.533386	37.635647
822.486450	34.208668
822.439636	10.260934
822.392700	13.679024
822.345825	44.449608
822.298950	20.511871
822.252075	41.017082
822.205200	30.757816
822.158325	17.084900
822.111450	23.914976
822.064514	23.911091
822.017639	20.491892
821.970764	47.806648
821.923828	27.313648
821.876953	23.895559
821.830078	10.239290
821.783142	23.887796
821.736267	23.883917
821.689331	20.468603
821.642456	37.519676
821.595520	34.103256
821.548584	40.917259
821.501648	-3.409218
821.454712	34.086636
821.407837	10.224330
821.360901	20.445337
821.314026	27.256020
821.267029	13.625796
821.220154	30.653059
821.173157	6.810684
821.126221	23.833521
821.079285	30.638119
821.032349	13.614729
820.985413	27.225033
820.938477	40.830914
820.891541	40.824280
820.844604	17.007351
820.797668	30.608257
820.750671	0.000000
820.703735	20.398872
820.656738	40.791115
820.609802	10.196121
820.562866	10.194465
820.515930	13.590410
820.468933	30.573452
820.421997	30.568481
820.375000	27.167568
820.328003	27.163151
820.281006	23.763893
820.234009	27.154320
820.187073	16.968691
820.140076	30.538679
820.093140	23.748446
820.046082	23.744583
819.999146	20.349192
819.952148	40.691765
819.905090	16.952147
819.858093	47.458290
819.811096	20.335960
819.764099	30.498981
819.717163	30.494022
819.670105	16.938368
819.623108	13.548491
819.576111	23.706005
819.529114	20.316128
819.482117	13.541883
819.435059	13.539680
819.388062	16.921848
819.341064	27.070555
819.294006	23.682882
819.247009	10.148156
819.199951	27.057348
819.152954	23.671329
819.105896	20.286411
819.058838	16.902592
819.011841	13.519875
818.964783	30.414770
818.917725	13.515476
818.870667	27.026556
818.823669	20.266619
818.776611	27.017763
818.729553	30.390039
818.682434	43.889584
818.635376	16.877863
818.588379	13.500093
818.541321	-3.374474
818.494263	6.747850
818.447144	26.987009
818.400146	20.236963
818.353027	23.605949
818.306030	6.743460
818.258911	33.711811
818.211853	23.594427
818.164795	16.850420
818.117676	16.847679
818.070618	13.475949
818.023499	26.947512
817.976440	23.575235
817.929321	33.673428
817.882202	20.200769
817.835144	30.296221
817.788025	26.925591
817.740967	13.460605
817.693848	26.916826
817.646729	20.184334
817.599670	36.998589
817.552551	16.814804
817.505432	0.000000
817.458374	13.447464
817.411255	23.529230
817.364075	10.082314
817.316956	20.161346
817.269897	26.877419
817.222717	6.718261
817.175598	50.378750
817.128479	10.074110
817.081360	33.574898
817.034180	30.212488
816.987061	20.138380
816.939941	26.846802
816.892822	23.487125
816.845642	23.483301
816.798523	26.833689
816.751404	10.060994
816.704224	26.824949
816.657104	16.762863
816.609985	30.168240
816.562744	26.811846
816.515625	13.403740
816.468506	16.751945
816.421265	26.798748
816.374146	16.746490
816.326965	33.487522
816.279785	16.741035
816.232605	26.781292
816.185486	16.735582
816.138306	13.386284
816.091125	20.076155
816.043945	43.491249
815.996765	20.069614
815.949585	20.066345
815.902405	13.375384
815.855164	0.000000
815.807983	30.084810
815.760803	6.684424
815.713623	43.441677
815.666443	33.411228
815.619263	23.384050
815.572083	10.020103
815.524841	13.357961
815.477661	16.694729
815.430420	30.045616
815.383240	33.378578
815.335999	43.385078
815.288757	33.367699
815.241577	16.681131
815.194336	16.678413
815.147156	13.340555
815.099915	16.672977
815.052673	16.670259
815.005432	16.667542
814.958252	26.663721
814.911011	9.997266
814.863770	9.995636
814.816528	3.331336
814.769287	19.984755
814.722046	19.981497
814.674866	36.626774
814.627563	19.974983
814.580322	19.971727
814.533081	23.296549
814.485840	23.292751
814.438599	13.307973
814.391296	16.632254
814.344055	19.955452
814.296753	13.301465
814.249573	13.299296
814.202209	9.972846
814.154968	13.294959
814.107727	16.615990
814.060486	13.290624
814.013184	16.610571
813.965881	19.929434
813.918640	13.284122
813.871338	16.602446
813.824097	19.919685
813.776794	36.513466
813.729431	23.232054
813.682190	19.909941
813.634949	36.495605
813.587585	19.903446
813.540283	13.266800
813.492981	13.264636
813.445740	16.578091
813.398376	26.520617
813.351074	13.258145
813.303833	26.511965
813.256531	16.567274
813.209167	23.190401
813.161865	16.561869
813.114502	3.311834
813.067261	29.801638
813.019958	9.932259
812.972595	19.861277
812.925232	23.167707
812.877930	26.473061
812.830566	33.085926
812.783325	16.540264
812.735962	29.767616
812.688599	16.534866
812.641296	13.225734
812.593933	23.141256
812.546631	36.358898
812.499207	29.743334
812.451904	16.521378
812.404541	23.126154
812.357239	29.728773
812.309875	16.513288
812.262512	3.302119
812.215149	19.809479
812.167786	42.913532
812.120361	6.601004
812.073059	26.399706
812.025635	3.299425
811.978333	9.896658
811.930969	26.386780
811.883545	26.382471
811.836182	32.972706
811.788818	16.483662
811.741394	23.073357
811.694031	13.182623
811.646667	23.065823
811.599304	9.883739
811.551880	9.882125
811.504456	16.467518
811.457092	23.050762
811.409668	13.169713
811.362305	29.627014
811.314941	9.874059
811.267517	-3.290815
811.220154	29.612501
811.172729	3.289741
811.125305	26.313627
811.077881	9.865998
811.030457	29.593161
810.983032	29.588327
810.935608	9.861164
810.888184	23.005625
810.840820	9.857944
810.793396	22.998110
810.745911	3.284908
810.698486	32.843708
810.651062	19.703007
810.603638	13.133192
810.556213	19.696569
810.508728	6.564450
810.461365	16.408445
810.413879	32.811527
810.366394	19.683701
810.318970	19.680483
810.271545	45.913624
810.224060	22.953060
810.176636	29.506256
810.129211	9.833812
810.081726	6.554803
810.034302	19.661196
809.986816	16.381651
809.939331	19.654770
809.891907	6.550519
809.844421	19.648346
809.796936	19.645134
809.749451	-9.820961
809.702026	16.365593
809.654480	9.817751
809.607056	32.720490
809.559570	26.172112
809.512085	29.438812
809.464600	19.622667
809.417114	9.809730
809.369568	22.885626
809.322144	22.881886
809.274597	3.268306
809.227173	39.213264
809.179626	32.672375
809.132141	42.467144
809.084656	19.597015
809.037109	13.062541
808.989563	9.795303
808.942078	29.381105
808.894592	16.320168
808.847107	32.634998
808.799561	32.629662
808.752014	6.524865
808.704529	29.357090
808.656982	29.352289
808.609497	19.564993
808.561951	35.863285
808.514404	22.818357
808.466858	19.555393
808.419373	13.034797
808.371826	22.807163
808.324280	9.772900
808.276733	16.285501
808.229187	19.539404
808.181641	16.280174
808.134094	13.022008
808.086548	9.764909
808.039001	22.781059
807.991455	22.777332
807.943909	32.533722
807.896301	16.264198
807.848755	16.261538
807.801208	22.762428
807.753662	22.758703
807.706055	29.256401
807.658508	16.250896
807.610901	6.499295
807.563416	9.747347
807.515747	38.983009
807.468201	32.480522
807.420654	25.980165
807.373108	29.222902
807.325439	3.246458
807.277832	19.475559
807.230347	16.226976
807.182739	32.448639
807.135132	25.954662
807.087463	19.462811
807.039917	22.702896
806.992310	9.728219
806.944702	12.968836
806.897156	6.483356
806.849548	29.170328
806.801880	19.443701
806.754272	12.960345
806.706665	22.676891
806.659058	25.912203
806.611450	25.907961
806.563843	32.379646
806.516235	22.662043
806.468567	19.421427
806.420959	19.418247
806.373291	29.122601
806.325684	12.941258
806.278076	35.582630
806.230469	12.937019
806.182800	12.934901
806.135132	38.798347
806.087524	22.628662
806.039856	16.160683
805.992249	25.852858
805.944580	16.155390
805.896973	32.305485
805.849243	25.840155
805.801636	12.917961
805.753967	29.060652
805.706299	19.370594
805.658691	9.683710
805.611023	22.591621
805.563354	29.041613
805.515625	22.584219
805.468018	0.000000
805.420349	22.576820
805.372681	6.449463
805.324951	22.569422
805.277283	0.000000
805.229614	29.008318
805.181885	19.335711
805.134216	41.887173
805.086548	0.000000
805.038879	38.652412
804.991211	16.102531
804.943481	19.319872
804.895752	28.975058
804.848083	16.094616
804.800354	-3.218395
804.752686	48.268021
804.705017	3.217340
804.657288	28.951319
804.609619	38.595428
804.561890	19.294552
804.514160	25.721851
804.466431	22.502930
804.418701	19.285063
804.371033	22.495552
804.323303	19.278740
804.275513	25.700773
804.227844	35.332767
804.180115	25.692347
804.132385	25.688133
804.084595	28.894411
804.036865	9.629891
803.989197	12.837749
803.941467	12.835644
803.893738	25.667078
803.845947	35.286446
803.798218	9.621997
803.750488	16.034033
803.702759	12.825122
803.654968	19.234528
803.607178	12.820915
803.559448	22.432920
803.511719	28.837597
803.463928	9.610955
803.416199	16.015631
803.368408	25.620806
803.320679	25.616604
803.272888	19.209301
803.225159	22.407173
803.177307	6.401000
803.129578	19.199848
803.081787	6.398899
803.033997	15.994623
802.986206	12.793599
802.938416	31.978750
802.890686	12.789401
802.842896	15.984128
802.795105	22.374107
802.747253	9.587329
802.699524	6.390504
802.651672	15.973638
802.603882	22.359423
802.556091	25.549433
802.508301	6.386310
802.460510	22.348415
802.412720	22.344748
802.364929	22.341080
802.317078	25.528471
802.269226	15.952675
802.221436	15.950056
802.173645	19.136927
802.125793	19.133783
802.078003	35.072845
802.030151	35.067089
801.982361	15.936968
801.934509	15.934352
801.886719	28.677124
801.838867	22.300768
801.791016	19.111805
801.743164	19.108667
801.695312	15.921274
801.647522	15.918659
801.599609	31.832090
801.551819	6.365373
801.503967	19.092981
801.456055	6.363282
801.408203	15.905593
801.360352	-6.361192
801.312500	25.440590
801.264709	41.334167
801.216797	12.716116
801.168945	15.892534
801.121094	12.711939
801.073181	6.354926
801.025391	25.415525
800.977478	15.882094
800.929565	12.703588
800.881714	12.701501
800.833862	25.398829
800.785950	9.522996
800.738037	22.216673
800.690247	28.559601
800.642334	19.036606
800.594421	15.861231
800.546570	19.030350
800.498596	25.369631
800.450745	6.341365
800.402832	19.020969
800.354980	25.357124
800.307068	12.676478
800.259155	19.011593
800.211243	25.344624
800.163330	9.502672
800.115417	9.501110
800.067505	15.832581
800.019653	25.327965
799.971680	15.827376
799.923767	15.824775
799.875854	15.822173
799.827942	25.311316
799.779968	18.980366
799.732117	18.977245
799.684143	-3.162354
799.636230	22.132839
799.588257	25.290516
799.540344	25.286356
799.492371	18.961649
799.444458	18.958532
799.396545	-3.159236
799.348572	18.952297
799.300598	37.898361
799.252686	6.315355
799.204712	18.942949
799.156738	28.409750
799.108826	31.561197
799.060852	31.556005
799.012878	9.465244
798.964966	15.772813
798.916992	9.462132
798.869019	15.767625
798.821045	12.612025
798.773071	18.914925
798.725098	12.607876
798.677124	18.908703
798.629150	18.905592
798.581116	9.451241
798.533203	0.000000
798.485168	28.344393
798.437256	18.893152
798.389221	12.593363
798.341248	9.443468
798.293274	37.767658
798.245300	12.587148
798.197266	22.023884
798.149292	22.020258
798.101257	34.597569
798.053223	9.434148
798.005310	9.432595
797.957275	25.149446
797.909241	34.574799
797.861206	18.855877
797.813232	18.852774
797.765198	15.708058
797.717224	28.269852
797.669189	12.562310
797.621155	12.560242
797.573120	21.976805
797.525146	9.417080
797.477112	18.831060
797.429016	21.965954
797.381042	25.099813
797.333008	37.643520
797.284912	34.500877
797.236877	28.223345
797.188843	15.677053
797.140808	6.269789
797.092773	15.671891
797.044800	28.204760
796.996704	21.933422
796.948608	31.328300
796.900635	37.587769
796.852539	28.186184
796.804504	15.656412
796.756409	15.653833
796.708374	12.521004
796.660339	21.908148
796.612244	28.162979
796.564209	21.900930
796.516113	18.769135
796.468018	3.127674
796.419983	6.254317
796.371887	21.886503
796.323792	21.882896
796.275757	28.130518
796.227600	18.750587
796.179504	37.494999
796.131470	6.248137
796.083374	31.235535
796.035278	6.246078
795.987183	34.347767
795.939087	21.854067
795.891052	9.364486
795.842896	21.846865
795.794800	18.722799
795.746643	15.599761
795.698547	-6.238876
795.650452	28.070314
795.602356	18.710459
795.554260	40.532642
795.506165	18.704290
795.458069	21.818075
795.409912	37.396248
795.361816	9.347521
795.313660	24.922613
795.265564	9.344440
795.217407	21.800097
795.169312	3.113786
795.121216	18.679636
795.073059	-3.112759
795.024902	3.112246
794.976746	3.111733
794.928589	6.222440
794.880493	31.107067
794.832336	21.771357
794.784180	15.548405
794.736023	6.218336
794.687866	12.434621
794.639709	21.756998
794.591553	3.107630
794.543396	21.749823
794.495239	18.639629
794.447144	0.000000
794.398926	9.316740
794.350830	27.945610
794.302612	18.627335
794.254456	12.416174
794.206238	15.517657
794.158081	21.721136
794.109924	12.410029
794.061707	18.611973
794.013550	6.202968
793.965393	27.908749
793.917236	15.502302
793.869019	15.499744
793.820862	9.298312
793.772583	9.296778
793.724426	15.492072
793.676270	6.195806
793.628052	3.097392
793.579895	24.775045
793.531677	21.674587
793.483459	24.766869
793.435242	30.953474
793.387085	18.569019
793.338806	21.660280
793.290649	18.562889
793.242371	34.026348
793.194214	15.463968
793.145996	15.461415
793.097778	24.734180
793.049561	27.821358
793.001343	12.363007
792.953064	3.090241
792.904846	-3.089731
792.856628	24.713768
792.808411	15.443555
792.760193	9.264603
792.711914	15.438455
792.663696	18.523087
792.615417	15.433356
792.567200	43.206261
792.518982	9.256955
792.470703	0.000000
792.422485	18.507795
792.374207	37.009480
792.325928	18.501682
792.277710	24.664835
792.229492	12.330380
792.181152	15.410430
792.132935	3.081577
792.084656	27.729609
792.036377	21.563911
791.988098	18.480299
791.939819	0.000000
791.891602	15.395161
791.843323	21.549664
791.795044	12.312058
791.746765	9.232518
791.698486	9.230992
791.650208	9.229467
791.601929	18.455885
791.553650	36.905670
791.505371	24.599712
791.457031	9.223368
791.408752	24.591583
791.360474	12.293759
791.312195	3.072932
791.263916	0.000000
791.215576	24.575329
791.167297	3.071408
791.118958	3.070900
791.070679	12.281571
791.022339	15.349426
790.974060	15.346889
790.925720	18.413221
790.877441	9.205089
790.829102	24.542845
790.780823	3.067348
790.732422	6.133683
790.684143	6.132668
790.635803	30.658272
790.587524	21.457241
790.539185	3.064813
790.490845	12.257226
790.442505	15.318998
790.394104	9.189878
790.345825	18.376719
790.297424	12.249119
790.249146	6.123547
790.200745	0.000000
790.152405	3.060760
790.104065	9.180762
790.055725	15.298739
790.007385	24.473934
789.958984	15.293678
789.910706	9.174689
789.862305	0.000000
789.813904	27.514961
789.765564	24.453695
789.717224	9.168619
789.668823	21.389904
789.620483	24.441559
789.572083	-6.109379
789.523682	12.216736
789.475342	27.483107
789.427002	12.212692
789.378601	21.368675
789.330200	9.156488
789.281799	24.413260
789.233459	18.306915
789.185059	6.101295
789.136658	36.601711
789.088257	24.397100
789.039856	9.147398
788.991455	9.145885
788.943115	3.048123
788.894714	18.285713
788.846252	21.329800
788.797913	18.279659
788.749451	6.092211
788.701050	21.319206
788.652649	18.270580
788.604248	9.133778
788.555847	12.176353
788.507385	21.305090
788.458984	21.301561
788.410522	18.255459
788.362122	6.084145
788.313660	3.041569
788.265259	15.205325
788.216858	27.365051
788.168396	15.200289
788.119995	27.355988
788.071533	12.156202
788.023071	21.269831
787.974670	15.190220
787.926208	15.187703
787.877747	18.222225
787.829346	12.146137
787.780884	15.180157
787.732422	30.355282
787.684021	15.175127
787.635559	9.103567
787.587097	27.306177
787.538635	-9.100551
787.490173	6.066029
787.441711	18.195070
787.393250	30.320091
787.344788	24.252054
787.296326	24.248034
787.247803	21.213514
787.199341	9.089999
787.150879	27.265478
787.102417	15.144977
787.053894	21.199453
787.005432	15.139956
786.956909	18.164936
786.908508	18.161924
786.859985	-6.052971
786.811523	6.051968
786.763000	21.178375
786.714478	9.074942
786.666016	6.048958
786.617493	15.119888
786.569031	18.140858
786.520508	33.252724
786.471985	24.179789
786.423523	6.043945
786.375000	15.107357
786.326477	21.146791
786.277954	18.122816
786.229431	15.099842
786.180908	21.136272
786.132446	12.075867
786.083923	36.221592
786.035339	15.089827
785.986816	12.069859
785.938354	18.101786
785.889771	24.131710
785.841248	12.063853
785.792725	24.123703
785.744202	18.089775
785.695679	18.086775
785.647095	12.055849
785.598572	3.013462
785.550049	9.038887
785.501465	18.074774
785.452942	18.071774
785.404358	15.057313
785.355835	15.054814
785.307251	12.041853
785.258728	12.039854
785.210205	9.028392
785.161621	15.044823
785.113037	6.016930
785.064453	27.071692
785.015930	6.014933
784.967346	18.041803
784.918762	21.045277
784.870239	15.029845
784.821594	18.032820
784.773071	27.044741
784.724487	24.035778
784.675903	18.023840
784.627319	21.024323
784.578735	-6.005952
784.530151	30.024775
784.481567	24.015831
784.432983	6.002961
784.384399	3.000982
784.335754	21.003386
784.287170	11.999941
784.238586	11.997949
784.190002	17.993933
784.141357	5.996982
784.092773	29.979929
784.044128	23.979959
783.995605	5.993994
783.946960	23.971992
783.898376	14.980007
783.849670	20.968525
783.801086	14.975030
783.752502	29.945086
783.703857	14.970055
783.655212	23.948109
783.606628	11.972065
783.558044	11.970076
783.509338	23.936172
783.460693	11.966098
783.412109	29.910275
783.363464	17.943182
783.314819	0.000000
783.266174	20.926756
783.217529	14.945198
783.168884	17.931257
783.120300	23.904369
783.071594	14.937748
783.022949	11.948212
782.974304	11.946226
782.925659	20.902420
782.877014	20.898945
782.828369	5.970135
782.779663	26.861139
782.731018	2.984075
782.682373	17.901472
782.633667	17.898497
782.585022	17.895521
782.536377	8.946273
782.487671	5.963190
782.439026	17.886595
782.390320	2.980603
782.341614	-2.980108
782.292969	0.000000
782.244263	5.958233
782.195557	0.000000
782.146912	2.978126
782.098206	17.865782
782.049500	8.931406
782.000854	8.929920
781.952087	26.785303
781.903442	23.805199
781.854736	26.776392
781.806030	2.974660
781.757324	14.870825
781.708618	2.973670
781.659912	11.892701
781.611206	2.972681
781.562500	-2.972186
781.513794	29.716915
781.465027	17.827183
781.416382	11.882811
781.367615	17.821249
781.318909	8.909142
781.270203	11.876879
781.221436	14.843628
781.172791	2.968231
781.124023	23.741899
781.075256	14.836218
781.026550	23.733997
780.977844	32.628815
780.929077	14.828811
780.880310	14.826342
780.831604	2.964775
780.782837	14.821405
780.734131	0.000000
780.685364	17.779766
780.636597	17.776806
780.587891	14.811538
780.539062	8.885443
780.490356	2.961321
780.441589	14.804140
780.392822	8.881004
780.344055	14.799210
780.295288	17.756094
780.246521	14.794281
780.197815	23.666906
780.148987	20.705095
780.100281	8.872134
780.051453	26.611969
780.002686	5.912786
779.953918	2.955900
779.905151	8.866224
779.856384	-2.954916
779.807556	20.680964
779.758789	11.815724
779.710022	8.860317
779.661194	23.623575
779.612427	17.714729
779.563599	20.663740
779.514832	14.757356
779.466003	8.852938
779.417236	20.653412
779.368408	14.749979
779.319580	14.747520
779.270813	-2.949013
779.221985	17.691126
779.173218	23.584238
779.124390	32.422920
779.075562	20.629330
779.026733	14.732779
778.977966	29.460646
778.929138	8.836720
778.880310	20.615578
778.831482	11.778366
778.782593	17.664604
778.733826	17.661657
778.684937	2.943119
778.636108	2.942628
778.587341	23.537100
778.538513	17.649881
778.489624	2.941156
778.440796	11.762664
778.391968	11.760702
778.343079	11.758740
778.294250	20.574364
778.245422	20.570932
778.196594	14.691073
778.147705	20.564072
778.098816	17.623407
778.049988	8.810234
778.001099	23.490038
777.952271	11.743059
777.903381	17.611650
777.854553	20.543497
777.805664	20.540070
777.756836	14.669031
777.707886	17.599899
777.659058	8.798482
777.610168	14.661690
777.561279	8.795546
777.512451	11.725437
777.463562	14.654351
777.414673	2.930381
777.365784	17.579351
777.316895	5.858806
777.268005	11.715656
777.219116	17.570551
777.170227	17.567619
777.121277	17.564686
777.072388	17.561754
777.023560	29.264704
776.974670	14.629910
776.925720	17.552961
776.876831	8.775015
776.827881	5.849033
776.778992	11.696114
776.730103	11.694160
776.681152	17.538313
776.632263	23.380512
776.583313	-2.922076
776.534424	8.764764
776.485535	17.526600
776.436584	23.364899
776.387695	8.760373
776.338684	5.839273
776.289795	11.676597
776.240906	8.755984
776.191956	8.754522
776.143005	8.753059
776.094055	11.668797
776.045105	14.583559
775.996216	14.581123
775.947266	14.578687
775.898315	11.661001
775.849365	17.488579
775.800415	2.914276
775.751465	8.741368
775.702515	5.826605
775.653564	20.389709
775.604553	5.824658
775.555664	8.735526
775.506653	2.911355
775.457703	11.643476
775.408752	14.551912
775.359802	17.459377
775.310852	0.000000
775.261841	8.726770
775.212891	26.175934
775.163879	23.263609
775.114929	29.074650
775.065918	14.534894
775.016968	8.719479
774.968018	14.530035
774.918945	11.622085
774.869995	5.810071
774.820984	5.809099
774.772034	5.808128
774.723022	20.325048
774.674011	23.224743
774.625061	14.513037
774.576050	31.923340
774.527039	8.704909
774.478027	20.308058
774.429016	8.701998
774.380005	8.700542
774.330994	8.699087
774.281982	17.395264
774.232971	8.696177
774.183960	26.084167
774.134949	8.693268
774.085876	17.383627
774.036926	17.380720
773.987915	17.377811
773.938904	20.270721
773.889832	23.162663
773.840820	8.684545
773.791809	26.049274
773.742737	20.257156
773.693665	17.360373
773.644653	23.143290
773.595581	11.569708
773.546570	5.783886
773.497559	20.240211
773.448486	26.018774
773.399475	5.780982
773.350403	5.780015
773.301331	11.558094
773.252319	17.334238
773.203247	11.554224
773.154236	20.216507
773.105103	8.662767
773.056030	23.096844
773.007019	20.206356
772.957947	11.544556
772.908875	11.542623
772.859802	23.081379
772.810730	20.192825
772.761658	11.536825
772.712585	25.953508
772.663513	23.065922
772.614441	14.413787
772.565369	14.411373
772.516296	20.172543
772.467163	20.169163
772.418091	17.284958
772.368958	14.401719
772.319946	-5.759723
772.270813	5.758758
772.221741	8.636690
772.172668	20.148899
772.123535	11.511728
772.074402	8.632349
772.025330	11.507871
771.976257	20.135399
771.927124	11.504015
771.877991	20.128653
771.828918	-8.625119
771.779785	22.996464
771.730652	11.496305
771.681580	17.241568
771.632446	17.238678
771.583313	31.598946
771.534180	28.721498
771.485046	20.101679
771.435974	22.969498
771.386780	11.482823
771.337708	22.961796
771.288513	8.609230
771.239380	20.084835
771.190247	2.868781
771.141113	11.473201
771.091980	20.074736
771.042908	5.734677
770.993713	2.866858
770.944519	11.465508
770.895447	11.463585
770.846313	22.923325
770.797119	22.919479
770.747925	14.322272
770.698792	17.183844
770.649658	34.361923
770.600525	8.589040
770.551331	20.037731
770.502197	11.448212
770.453003	8.584719
770.403870	11.444371
770.354675	20.024290
770.305481	11.440532
770.256287	31.456182
770.207153	11.436692
770.157959	34.304321
770.108765	11.432855
770.059631	20.004139
770.010437	11.429018
769.961243	8.570325
769.912048	5.712591
769.862854	22.846531
769.813660	17.132021
769.764465	11.419431
769.715271	8.563135
769.666077	25.685095
769.616882	19.973942
769.567688	5.705883
769.518494	14.262312
769.469238	17.111900
769.420044	25.663542
769.370850	19.957182
769.321594	14.252736
769.272461	17.100412
769.223206	2.849590
769.173950	19.943781
769.124817	25.637699
769.075562	22.785238
769.026306	19.933735
768.977112	14.235991
768.927856	8.540160
768.878662	-2.846242
768.829407	14.228820
768.780212	14.226429
768.730957	0.000000
768.681763	17.065981
768.632446	14.219261
768.583252	19.903622
768.533997	14.214484
768.484741	11.369677
768.435486	11.367766
768.386230	17.048784
768.337036	5.681973
768.287781	25.564583
768.238525	0.000000
768.189209	14.197774
768.140015	28.390776
768.090759	0.000000
768.041443	5.676247
767.992188	8.512938
767.942932	28.371695
767.893677	28.366924
767.844421	11.344863
767.795105	2.835739
767.745850	19.846836
767.696594	19.843498
767.647278	11.337236
767.598022	22.670660
767.548767	8.500068
767.499451	5.665759
767.450134	16.994419
767.400879	19.823490
767.351562	16.988705
767.302307	5.661950
767.252991	19.813490
767.203735	2.830023
767.154419	16.977280
767.105103	19.803495
767.055786	22.628759
767.006470	16.968716
766.957214	19.793505
766.907837	22.617342
766.858582	2.826692
766.809265	11.304867
766.759949	11.302965
766.710632	5.650532
766.661316	8.474372
766.612000	19.770206
766.562683	22.590719
766.513367	0.000000
766.464050	28.228897
766.414673	11.289659
766.365356	8.465819
766.316040	5.642930
766.266724	0.000000
766.217346	8.461546
766.168030	2.820040
766.118713	2.819566
766.069336	19.733639
766.020020	28.186167
765.970703	16.908854
765.921326	14.088339
765.871948	11.268774
765.822632	14.083595
765.773254	8.448734
765.723938	28.157707
765.674561	30.968264
765.625244	16.888935
765.575867	22.514790
765.526489	30.952621
765.477112	16.880405
765.427795	16.877562
765.378418	14.062266
765.329041	0.000000
765.279663	5.623012
765.230286	11.244129
765.180908	2.810559
765.131531	11.240342
765.082153	5.619224
765.032715	11.236555
764.983337	16.851994
764.934021	16.849154
764.884644	2.807719
764.835205	11.228985
764.785828	11.227093
764.736450	14.031501
764.687073	16.834965
764.637634	5.610709
764.588257	22.439054
764.538818	14.022045
764.489441	28.039364
764.440063	5.606928
764.390625	19.620939
764.341187	22.420151
764.291809	22.416372
764.242432	25.214167
764.192932	14.005509
764.143555	22.405037
764.094116	14.000788
764.044739	5.599371
763.995300	16.795280
763.945862	22.389931
763.896484	13.991347
763.847046	16.786787
763.797607	22.378607
763.748169	16.781126
763.698730	22.371059
763.649292	36.346844
763.599854	19.568075
763.550415	8.384904
763.500977	16.766979
763.451538	25.146227
763.402100	16.761324
763.352661	11.172331
763.303162	16.755669
763.253723	16.752842
763.204285	13.958346
763.154846	19.538387
763.105408	13.953637
763.055908	11.161026
763.006470	22.318285
762.957031	16.735889
762.907532	8.366532
762.858032	5.576747
762.808594	2.787903
762.759094	16.724596
762.709656	16.721773
762.660156	11.145967
762.610718	11.144086
762.561218	13.927755
762.511780	11.140324
762.462280	8.353832
762.412781	22.273127
762.363342	8.351012
762.313843	16.699203
762.264343	13.913654
762.214783	13.911305
762.165344	19.472538
762.115845	22.250572
762.066345	16.685112
762.016846	27.803823
761.967346	22.239302
761.917847	8.338329
761.868286	27.789738
761.818848	25.006540
761.769287	27.780352
761.719788	16.665396
761.670288	19.439678
761.620789	16.659765
761.571228	19.433111
761.521729	16.654139
761.472229	16.651325
761.422668	24.972767
761.373169	11.097133
761.323608	19.416700
761.274109	19.413420
761.224609	24.955893
761.175049	24.951675
761.125488	2.771940
761.075989	8.314414
761.026489	8.313009
760.976929	8.311604
760.927307	30.470732
760.877808	16.617590
760.828308	13.845651
760.778687	16.611973
760.729187	13.840970
760.679626	16.606358
760.630066	13.836291
760.580566	5.533581
760.530945	11.065290
760.481384	13.829274
760.431824	24.888485
760.382263	5.529839
760.332703	13.822260
760.283142	16.583908
760.233521	13.817586
760.184021	30.393547
760.134460	19.338078
760.084839	11.048461
760.035278	22.093185
759.985657	2.761181
759.936096	16.564283
759.886536	24.842222
759.836975	11.039120
759.787354	19.315191
759.737732	0.000000
759.688232	2.758379
759.638611	0.000000
759.588989	8.272339
759.539368	13.784898
759.489807	13.782565
759.440186	22.048374
759.390564	19.289062
759.341003	11.020455
759.291443	33.055771
759.241760	13.770907
759.192200	13.768577
759.142578	11.012997
759.092957	8.258349
759.043335	-5.504634
758.993713	8.255554
758.944092	5.502771
758.894470	-2.750920
758.844849	13.752270
758.795227	0.000000
758.745667	5.499045
758.695984	30.239628
758.646362	16.491549
758.596741	19.236883
758.547058	16.485964
758.497437	10.988782
758.447815	10.986920
758.398193	13.731324
758.348511	13.728999
758.298889	21.962677
758.249268	21.958958
758.199646	13.722024
758.149963	10.975760
758.100281	13.717375
758.050659	19.201071
758.000977	27.425455
757.951355	2.742081
757.901672	10.966465
757.851990	16.446911
757.802368	19.184811
757.752686	19.181561
757.703003	21.918068
757.653320	10.957176
757.603699	16.432980
757.554016	8.215097
757.504333	19.165312
757.454651	35.586689
757.404968	19.158815
757.355286	27.365095
757.305603	19.152319
757.255920	24.620237
757.206238	32.821419
757.156616	19.142580
757.106873	21.873526
757.057190	21.869818
757.007446	30.065901
756.957764	5.465600
756.908081	13.661684
756.858398	5.463747
756.808716	13.657051
756.758972	16.385681
756.709290	8.191451
756.659607	10.920082
756.609924	8.188673
756.560120	13.645473
756.510437	8.185895
756.460693	13.640844
756.411072	10.910824
756.361328	21.817945
756.311584	19.087463
756.261902	24.536861
756.212097	10.903421
756.162415	8.176178
756.112671	16.349583
756.062927	10.897872
756.013184	-2.724006
755.963501	27.235434
755.913757	27.230812
755.864014	13.613094
755.814270	2.722157
755.764587	10.886779
755.714844	13.606164
755.665100	19.045397
755.615356	5.440618
755.565552	16.319084
755.515808	10.877542
755.466064	16.313543
755.416321	10.873849
755.366577	32.616009
755.316833	8.152617
755.267029	24.453699
755.217285	13.583081
755.167542	13.580774
755.117737	21.725550
755.067993	16.291395
755.018188	13.573856
754.968445	19.000172
754.918701	13.569246
754.868896	16.280329
754.819092	16.277563
754.769348	16.274799
754.719543	10.848022
754.669739	21.692360
754.619995	0.000000
754.570190	18.974365
754.520386	13.550816
754.470642	29.806728
754.420837	5.418484
754.371033	10.835127
754.321228	27.083214
754.271484	18.955029
754.221619	16.244406
754.171875	16.241644
754.122070	29.771288
754.072205	18.942144
754.022400	16.233364
753.972595	18.935705
753.922852	18.932486
753.872986	24.337629
753.823181	16.222328
753.773376	21.626093
753.723572	29.730824
753.673706	8.107027
753.623901	16.211298
753.574097	16.208542
753.524292	5.401928
753.474426	13.502524
753.424561	21.600365
753.374756	21.596691
753.324951	10.796509
753.275085	18.890676
753.225281	5.396418
753.175415	8.093250
753.125610	21.578329
753.075745	26.968325
753.025879	18.874615
752.976074	21.567318
752.926208	35.040932
752.876343	13.474988
752.826477	21.556313
752.776672	16.164482
752.726807	10.774488
752.676941	16.158981
752.627075	-5.385411
752.577209	2.692247
752.527344	21.534311
752.477539	13.456654
752.427673	8.072618
752.377808	13.452073
752.327881	13.449783
752.278015	16.136992
752.228149	24.201368
752.178284	8.065749
752.128357	21.505003
752.078491	8.063003
752.028625	24.184891
751.978760	10.747009
751.928833	24.176655
751.878967	2.685838
751.829102	10.741520
751.779175	18.794458
751.729309	-2.684465
751.679382	18.788057
751.629456	16.101307
751.579590	26.830940
751.529663	26.826370
751.479797	13.410900
751.429871	24.135508
751.379944	16.087597
751.330078	21.446476
751.280212	29.483879
751.230225	18.759272
751.180298	13.397197
751.130371	13.394914
751.080505	21.428209
751.030579	10.712279
750.980652	13.388067
750.930725	2.677157
750.880859	5.353402
750.830872	18.733711
750.780945	10.703154
750.731018	18.727325
750.681091	10.699505
750.631165	18.720942
750.581177	16.043785
750.531311	10.694034
750.481384	18.711369
750.431396	13.362985
750.381409	21.377131
750.331482	13.358428
750.281616	16.027380
750.231628	16.024647
750.181641	5.340638
750.131714	13.349318
750.081787	0.000000
750.031799	16.013718
